# OpenSignals Text File Format. Version 1
# {"00:07:80:8C:AD:D6": {"position": 0, "device": "biosignalsplux", "device name": "ECG", "device connection": "BTH00:07:80:8C:AD:D6", "sampling rate": 1000, "resolution": [16], "firmware version": 776, "comments": "krishna2", "keywords": "", "mode": 0, "sync interval": 2, "date": "2024-2-28", "time": "14:55:59.953", "channels": [1], "sensor": ["BVP"], "label": ["CH1"], "column": ["nSeq", "DI", "CH1"], "special": [{"SpO2": [80, 40, 5, 4, 3, 3]}, {"SpO2": [80, 40, 5, 4, 3, 3]}, {"SpO2": [80, 40, 5, 4, 3, 3]}, {"SpO2": [80, 40, 5, 4, 3, 3]}, {"SpO2": [80, 40, 5, 4, 3, 3]}, {"SpO2": [80, 40, 5, 4, 3, 3]}, {"SpO2": [80, 40, 5, 4, 3, 3]}, {"SpO2": [80, 40, 5, 4, 3, 3]}], "digital IO": [0, 1], "sleeve color": ["dark_blue"]}}
# EndOfHeader
0	0	38504	
1	0	38784	
2	0	38988	
3	0	39060	
4	0	39233	
5	0	39468	
6	0	39664	
7	0	39674	
8	0	39820	
9	0	40020	
10	0	40192	
11	0	40280	
12	0	40340	
13	0	40556	
14	0	40596	
15	0	40804	
16	0	40732	
17	0	40864	
18	0	40956	
19	0	41200	
20	0	41140	
21	0	41357	
22	0	41480	
23	0	41504	
24	0	41632	
25	0	41698	
26	0	41728	
27	0	41836	
28	0	41918	
29	0	41936	
30	0	42028	
31	0	42053	
32	0	42160	
33	0	42264	
34	0	42400	
35	0	42356	
36	0	42522	
37	0	42458	
38	0	42480	
39	0	42524	
40	0	42518	
41	0	42700	
42	0	42736	
43	0	42776	
44	0	42764	
45	0	42788	
46	0	42820	
47	0	42812	
48	0	42832	
49	0	42856	
50	0	42828	
51	0	42816	
52	0	42948	
53	0	43072	
54	0	43050	
55	0	42940	
56	0	43028	
57	0	43056	
58	0	42992	
59	0	43024	
60	0	43024	
61	0	43032	
62	0	43061	
63	0	42896	
64	0	42924	
65	0	43040	
66	0	43009	
67	0	42896	
68	0	42888	
69	0	42871	
70	0	42904	
71	0	42844	
72	0	42864	
73	0	42848	
74	0	42932	
75	0	42752	
76	0	42628	
77	0	42807	
78	0	42804	
79	0	42721	
80	0	42688	
81	0	42708	
82	0	42744	
83	0	42664	
84	0	42549	
85	0	42568	
86	0	42424	
87	0	42362	
88	0	42347	
89	0	42400	
90	0	42332	
91	0	42296	
92	0	42218	
93	0	42276	
94	0	42228	
95	0	42241	
96	0	42124	
97	0	42052	
98	0	41992	
99	0	41985	
100	0	41938	
101	0	41925	
102	0	41815	
103	0	41824	
104	0	41722	
105	0	41740	
106	0	41640	
107	0	41540	
108	0	41549	
109	0	41528	
110	0	41492	
111	0	41519	
112	0	41345	
113	0	41322	
114	0	41368	
115	0	41310	
116	0	41133	
117	0	41045	
118	0	41000	
119	0	41068	
120	0	41028	
121	0	40944	
122	0	40852	
123	0	40772	
124	0	40760	
125	0	40784	
126	0	40690	
127	0	40530	
128	0	40544	
129	0	40414	
130	0	40428	
131	0	40340	
132	0	40284	
133	0	40346	
134	0	40124	
135	0	40162	
136	0	40016	
137	0	39946	
138	0	39996	
139	0	39828	
140	0	39768	
141	0	39824	
142	0	39856	
143	0	39660	
144	0	39509	
145	0	39538	
146	0	39430	
147	0	39343	
148	0	39286	
149	0	39136	
150	0	39272	
151	0	39140	
152	0	38986	
153	0	39057	
154	0	38996	
155	0	38872	
156	0	38816	
157	0	38725	
158	0	38682	
159	0	38560	
160	0	38420	
161	0	38365	
162	0	38384	
163	0	38228	
164	0	38120	
165	0	38040	
166	0	37925	
167	0	37856	
168	0	37841	
169	0	37776	
170	0	37702	
171	0	37556	
172	0	37316	
173	0	37516	
174	0	37396	
175	0	37156	
176	0	37080	
177	0	37000	
178	0	36881	
179	0	36836	
180	0	36780	
181	0	36736	
182	0	36688	
183	0	36414	
184	0	36404	
185	0	36380	
186	0	36224	
187	0	36128	
188	0	35980	
189	0	35936	
190	0	35912	
191	0	35804	
192	0	35618	
193	0	35719	
194	0	35640	
195	0	35524	
196	0	35298	
197	0	35308	
198	0	35372	
199	0	35220	
200	0	35144	
201	0	35138	
202	0	35109	
203	0	34924	
204	0	34884	
205	0	34712	
206	0	34612	
207	0	34533	
208	0	34594	
209	0	34538	
210	0	34552	
211	0	34428	
212	0	34274	
213	0	34336	
214	0	34300	
215	0	34309	
216	0	34312	
217	0	34036	
218	0	34108	
219	0	34128	
220	0	34085	
221	0	33974	
222	0	33922	
223	0	33812	
224	0	33860	
225	0	33888	
226	0	33762	
227	0	33786	
228	0	33768	
229	0	33712	
230	0	33716	
231	0	33624	
232	0	33640	
233	0	33662	
234	0	33616	
235	0	33554	
236	0	33564	
237	0	33540	
238	0	33428	
239	0	33425	
240	0	33380	
241	0	33473	
242	0	33575	
243	0	33488	
244	0	33472	
245	0	33424	
246	0	33578	
247	0	33436	
248	0	33438	
249	0	33460	
250	0	33396	
251	0	33353	
252	0	33348	
253	0	33348	
254	0	33370	
255	0	33316	
256	0	33457	
257	0	33440	
258	0	33420	
259	0	33390	
260	0	33376	
261	0	33402	
262	0	33428	
263	0	33400	
264	0	33394	
265	0	33472	
266	0	33594	
267	0	33456	
268	0	33337	
269	0	33400	
270	0	33464	
271	0	33412	
272	0	33364	
273	0	33460	
274	0	33572	
275	0	33539	
276	0	33452	
277	0	33568	
278	0	33504	
279	0	33536	
280	0	33488	
281	0	33484	
282	0	33616	
283	0	33485	
284	0	33592	
285	0	33530	
286	0	33454	
287	0	33544	
288	0	33552	
289	0	33572	
290	0	33692	
291	0	33644	
292	0	33584	
293	0	33621	
294	0	33646	
295	0	33596	
296	0	33552	
297	0	33576	
298	0	33704	
299	0	33494	
300	0	33632	
301	0	33664	
302	0	33704	
303	0	33652	
304	0	33679	
305	0	33608	
306	0	33432	
307	0	33576	
308	0	33602	
309	0	33614	
310	0	33624	
311	0	33532	
312	0	33656	
313	0	33617	
314	0	33672	
315	0	33664	
316	0	33600	
317	0	33592	
318	0	33554	
319	0	33525	
320	0	33568	
321	0	33593	
322	0	33600	
323	0	33556	
324	0	33445	
325	0	33572	
326	0	33588	
327	0	33520	
328	0	33442	
329	0	33447	
330	0	33444	
331	0	33488	
332	0	33380	
333	0	33512	
334	0	33420	
335	0	33344	
336	0	33338	
337	0	33489	
338	0	33284	
339	0	33293	
340	0	33184	
341	0	33132	
342	0	33237	
343	0	33205	
344	0	33148	
345	0	33177	
346	0	33200	
347	0	33144	
348	0	33168	
349	0	33188	
350	0	33097	
351	0	32976	
352	0	33056	
353	0	33070	
354	0	32952	
355	0	32903	
356	0	33060	
357	0	33024	
358	0	32872	
359	0	32966	
360	0	32862	
361	0	32851	
362	0	32884	
363	0	32752	
364	0	32638	
365	0	32720	
366	0	32624	
367	0	32614	
368	0	32609	
369	0	32686	
370	0	32564	
371	0	32504	
372	0	32526	
373	0	32586	
374	0	32648	
375	0	32505	
376	0	32480	
377	0	32360	
378	0	32372	
379	0	32394	
380	0	32267	
381	0	32244	
382	0	32324	
383	0	32224	
384	0	32186	
385	0	32216	
386	0	32264	
387	0	32128	
388	0	32012	
389	0	32060	
390	0	32052	
391	0	31958	
392	0	31988	
393	0	32094	
394	0	32004	
395	0	31961	
396	0	31940	
397	0	31936	
398	0	31832	
399	0	31799	
400	0	31692	
401	0	31670	
402	0	31737	
403	0	31676	
404	0	31556	
405	0	31572	
406	0	31596	
407	0	31561	
408	0	31488	
409	0	31540	
410	0	31516	
411	0	31368	
412	0	31396	
413	0	31404	
414	0	31349	
415	0	31321	
416	0	31313	
417	0	31173	
418	0	31144	
419	0	31290	
420	0	31098	
421	0	31070	
422	0	31222	
423	0	31140	
424	0	31061	
425	0	31006	
426	0	30928	
427	0	30834	
428	0	30884	
429	0	30957	
430	0	30852	
431	0	30853	
432	0	30848	
433	0	30808	
434	0	30858	
435	0	30740	
436	0	30848	
437	0	30786	
438	0	30660	
439	0	30688	
440	0	30602	
441	0	30565	
442	0	30618	
443	0	30492	
444	0	30560	
445	0	30594	
446	0	30523	
447	0	30410	
448	0	30444	
449	0	30472	
450	0	30455	
451	0	30462	
452	0	30380	
453	0	30549	
454	0	30520	
455	0	30368	
456	0	30381	
457	0	30484	
458	0	30392	
459	0	30256	
460	0	30232	
461	0	30348	
462	0	30352	
463	0	30271	
464	0	30258	
465	0	30191	
466	0	30255	
467	0	30112	
468	0	30128	
469	0	30169	
470	0	30180	
471	0	30192	
472	0	30093	
473	0	30103	
474	0	30281	
475	0	30162	
476	0	30056	
477	0	30132	
478	0	30122	
479	0	30084	
480	0	30032	
481	0	30054	
482	0	30144	
483	0	29968	
484	0	30092	
485	0	30020	
486	0	29952	
487	0	30020	
488	0	30044	
489	0	30058	
490	0	30024	
491	0	29994	
492	0	29884	
493	0	30024	
494	0	29984	
495	0	30016	
496	0	29976	
497	0	30029	
498	0	29940	
499	0	29930	
500	0	29876	
501	0	29962	
502	0	30044	
503	0	29936	
504	0	29880	
505	0	29942	
506	0	29848	
507	0	29760	
508	0	29852	
509	0	29868	
510	0	29836	
511	0	29852	
512	0	29799	
513	0	29928	
514	0	29850	
515	0	29864	
516	0	29888	
517	0	29800	
518	0	29742	
519	0	29850	
520	0	29740	
521	0	29796	
522	0	29908	
523	0	29842	
524	0	29806	
525	0	29744	
526	0	29825	
527	0	29722	
528	0	29684	
529	0	29704	
530	0	29792	
531	0	29637	
532	0	29706	
533	0	29704	
534	0	29684	
535	0	29604	
536	0	29667	
537	0	29652	
538	0	29602	
539	0	29660	
540	0	29625	
541	0	29661	
542	0	29646	
543	0	29580	
544	0	29517	
545	0	29498	
546	0	29476	
547	0	29504	
548	0	29404	
549	0	29408	
550	0	29408	
551	0	29406	
552	0	29447	
553	0	29456	
554	0	29426	
555	0	29322	
556	0	29326	
557	0	29256	
558	0	29207	
559	0	29282	
560	0	29173	
561	0	29136	
562	0	29212	
563	0	29199	
564	0	29136	
565	0	29184	
566	0	29052	
567	0	28945	
568	0	28963	
569	0	28956	
570	0	28922	
571	0	28948	
572	0	28864	
573	0	28904	
574	0	28772	
575	0	28815	
576	0	28872	
577	0	28892	
578	0	28624	
579	0	28756	
580	0	28578	
581	0	28652	
582	0	28684	
583	0	28600	
584	0	28498	
585	0	28532	
586	0	28492	
587	0	28416	
588	0	28410	
589	0	28416	
590	0	28400	
591	0	28364	
592	0	28312	
593	0	28381	
594	0	28356	
595	0	28278	
596	0	28305	
597	0	28284	
598	0	28272	
599	0	28327	
600	0	28288	
601	0	28337	
602	0	28386	
603	0	28312	
604	0	28379	
605	0	28430	
606	0	28436	
607	0	28414	
608	0	28472	
609	0	28570	
610	0	28824	
611	0	28916	
612	0	28928	
613	0	29104	
614	0	29216	
615	0	29272	
616	0	29408	
617	0	29595	
618	0	29606	
619	0	29749	
620	0	30064	
621	0	30120	
622	0	30384	
623	0	30554	
624	0	30668	
625	0	30913	
626	0	31106	
627	0	31305	
628	0	31536	
629	0	31692	
630	0	31960	
631	0	32208	
632	0	32434	
633	0	32704	
634	0	33068	
635	0	33216	
636	0	33336	
637	0	33604	
638	0	33974	
639	0	34146	
640	0	34212	
641	0	34648	
642	0	34957	
643	0	35012	
644	0	35198	
645	0	35484	
646	0	35746	
647	0	35932	
648	0	36224	
649	0	36416	
650	0	36667	
651	0	36992	
652	0	37096	
653	0	37336	
654	0	37632	
655	0	37752	
656	0	37888	
657	0	38040	
658	0	38364	
659	0	38500	
660	0	38660	
661	0	38870	
662	0	39148	
663	0	39256	
664	0	39438	
665	0	39620	
666	0	39742	
667	0	39804	
668	0	39960	
669	0	40184	
670	0	40433	
671	0	40576	
672	0	40680	
673	0	40763	
674	0	40840	
675	0	41052	
676	0	41240	
677	0	41388	
678	0	41457	
679	0	41637	
680	0	41642	
681	0	41780	
682	0	41872	
683	0	42020	
684	0	42080	
685	0	42208	
686	0	42184	
687	0	42292	
688	0	42420	
689	0	42456	
690	0	42656	
691	0	42722	
692	0	42792	
693	0	42850	
694	0	43116	
695	0	42992	
696	0	43032	
697	0	43145	
698	0	43132	
699	0	43130	
700	0	43276	
701	0	43352	
702	0	43417	
703	0	43468	
704	0	43482	
705	0	43464	
706	0	43496	
707	0	43508	
708	0	43588	
709	0	43644	
710	0	43680	
711	0	43720	
712	0	43648	
713	0	43722	
714	0	43872	
715	0	43692	
716	0	43808	
717	0	43872	
718	0	43840	
719	0	43744	
720	0	43746	
721	0	43696	
722	0	43848	
723	0	43748	
724	0	43626	
725	0	43704	
726	0	43688	
727	0	43648	
728	0	43692	
729	0	43644	
730	0	43770	
731	0	43773	
732	0	43620	
733	0	43600	
734	0	43604	
735	0	43599	
736	0	43604	
737	0	43509	
738	0	43560	
739	0	43404	
740	0	43341	
741	0	43324	
742	0	43392	
743	0	43321	
744	0	43296	
745	0	43276	
746	0	43168	
747	0	43125	
748	0	43116	
749	0	43136	
750	0	43065	
751	0	43072	
752	0	42980	
753	0	42980	
754	0	42934	
755	0	42868	
756	0	42924	
757	0	42932	
758	0	42760	
759	0	42664	
760	0	42676	
761	0	42612	
762	0	42668	
763	0	42520	
764	0	42412	
765	0	42376	
766	0	42288	
767	0	42260	
768	0	42244	
769	0	42136	
770	0	42240	
771	0	42136	
772	0	42058	
773	0	42056	
774	0	42040	
775	0	41964	
776	0	41908	
777	0	41832	
778	0	41793	
779	0	41708	
780	0	41636	
781	0	41639	
782	0	41648	
783	0	41456	
784	0	41380	
785	0	41408	
786	0	41338	
787	0	41274	
788	0	41236	
789	0	41208	
790	0	41152	
791	0	41144	
792	0	41025	
793	0	41118	
794	0	41065	
795	0	40776	
796	0	40764	
797	0	40826	
798	0	40714	
799	0	40624	
800	0	40528	
801	0	40416	
802	0	40488	
803	0	40392	
804	0	40328	
805	0	40259	
806	0	40200	
807	0	40160	
808	0	39989	
809	0	39972	
810	0	39968	
811	0	39920	
812	0	39738	
813	0	39668	
814	0	39812	
815	0	39652	
816	0	39406	
817	0	39408	
818	0	39486	
819	0	39284	
820	0	39212	
821	0	39098	
822	0	39024	
823	0	38944	
824	0	38828	
825	0	38737	
826	0	38670	
827	0	38622	
828	0	38560	
829	0	38408	
830	0	38366	
831	0	38396	
832	0	38166	
833	0	38136	
834	0	38001	
835	0	37924	
836	0	37936	
837	0	37752	
838	0	37688	
839	0	37676	
840	0	37494	
841	0	37346	
842	0	37416	
843	0	37274	
844	0	37204	
845	0	37101	
846	0	36938	
847	0	36848	
848	0	36777	
849	0	36728	
850	0	36650	
851	0	36556	
852	0	36404	
853	0	36296	
854	0	36194	
855	0	36253	
856	0	36248	
857	0	36116	
858	0	35924	
859	0	35920	
860	0	35882	
861	0	35713	
862	0	35710	
863	0	35560	
864	0	35400	
865	0	35422	
866	0	35424	
867	0	35340	
868	0	35295	
869	0	35217	
870	0	35114	
871	0	35024	
872	0	34978	
873	0	34936	
874	0	34949	
875	0	34802	
876	0	34752	
877	0	34804	
878	0	34784	
879	0	34656	
880	0	34652	
881	0	34600	
882	0	34463	
883	0	34436	
884	0	34360	
885	0	34392	
886	0	34378	
887	0	34292	
888	0	34189	
889	0	34230	
890	0	34285	
891	0	34232	
892	0	34096	
893	0	34140	
894	0	34232	
895	0	34028	
896	0	33950	
897	0	34053	
898	0	34019	
899	0	33888	
900	0	33841	
901	0	33874	
902	0	33897	
903	0	33954	
904	0	33841	
905	0	33823	
906	0	33842	
907	0	33692	
908	0	33728	
909	0	33765	
910	0	33700	
911	0	33756	
912	0	33732	
913	0	33784	
914	0	33836	
915	0	33794	
916	0	33790	
917	0	33728	
918	0	33710	
919	0	33693	
920	0	33592	
921	0	33650	
922	0	33760	
923	0	33640	
924	0	33588	
925	0	33704	
926	0	33652	
927	0	33580	
928	0	33589	
929	0	33616	
930	0	33680	
931	0	33611	
932	0	33620	
933	0	33576	
934	0	33616	
935	0	33672	
936	0	33702	
937	0	33724	
938	0	33600	
939	0	33716	
940	0	33612	
941	0	33548	
942	0	33676	
943	0	33744	
944	0	33640	
945	0	33620	
946	0	33616	
947	0	33628	
948	0	33560	
949	0	33680	
950	0	33728	
951	0	33724	
952	0	33572	
953	0	33556	
954	0	33744	
955	0	33692	
956	0	33646	
957	0	33685	
958	0	33586	
959	0	33574	
960	0	33718	
961	0	33584	
962	0	33646	
963	0	33740	
964	0	33616	
965	0	33664	
966	0	33578	
967	0	33590	
968	0	33596	
969	0	33548	
970	0	33506	
971	0	33600	
972	0	33590	
973	0	33586	
974	0	33632	
975	0	33499	
976	0	33588	
977	0	33612	
978	0	33586	
979	0	33432	
980	0	33444	
981	0	33508	
982	0	33460	
983	0	33508	
984	0	33416	
985	0	33528	
986	0	33476	
987	0	33418	
988	0	33388	
989	0	33350	
990	0	33413	
991	0	33436	
992	0	33300	
993	0	33390	
994	0	33424	
995	0	33388	
996	0	33361	
997	0	33276	
998	0	33357	
999	0	33242	
1000	0	33158	
1001	0	33308	
1002	0	33300	
1003	0	33148	
1004	0	33156	
1005	0	33160	
1006	0	33088	
1007	0	32961	
1008	0	32981	
1009	0	32978	
1010	0	32952	
1011	0	32992	
1012	0	32841	
1013	0	32900	
1014	0	32920	
1015	0	32971	
1016	0	32960	
1017	0	32909	
1018	0	32836	
1019	0	32732	
1020	0	32677	
1021	0	32620	
1022	0	32628	
1023	0	32637	
1024	0	32532	
1025	0	32532	
1026	0	32552	
1027	0	32493	
1028	0	32416	
1029	0	32386	
1030	0	32389	
1031	0	32432	
1032	0	32328	
1033	0	32328	
1034	0	32248	
1035	0	32254	
1036	0	32240	
1037	0	32144	
1038	0	32104	
1039	0	32064	
1040	0	31948	
1041	0	31944	
1042	0	32056	
1043	0	32100	
1044	0	31993	
1045	0	31904	
1046	0	31840	
1047	0	31820	
1048	0	31744	
1049	0	31749	
1050	0	31786	
1051	0	31716	
1052	0	31672	
1053	0	31628	
1054	0	31618	
1055	0	31607	
1056	0	31489	
1057	0	31508	
1058	0	31512	
1059	0	31426	
1060	0	31420	
1061	0	31332	
1062	0	31304	
1063	0	31414	
1064	0	31300	
1065	0	31264	
1066	0	31120	
1067	0	31096	
1068	0	31048	
1069	0	31076	
1070	0	31109	
1071	0	30999	
1072	0	30960	
1073	0	30936	
1074	0	31001	
1075	0	30940	
1076	0	30828	
1077	0	30756	
1078	0	30720	
1079	0	30624	
1080	0	30672	
1081	0	30520	
1082	0	30644	
1083	0	30636	
1084	0	30425	
1085	0	30412	
1086	0	30405	
1087	0	30344	
1088	0	30350	
1089	0	30344	
1090	0	30316	
1091	0	30320	
1092	0	30272	
1093	0	30208	
1094	0	30216	
1095	0	30137	
1096	0	30104	
1097	0	30098	
1098	0	30032	
1099	0	30026	
1100	0	29992	
1101	0	30006	
1102	0	30048	
1103	0	29922	
1104	0	29768	
1105	0	29837	
1106	0	29808	
1107	0	29682	
1108	0	29604	
1109	0	29620	
1110	0	29720	
1111	0	29728	
1112	0	29584	
1113	0	29562	
1114	0	29488	
1115	0	29406	
1116	0	29475	
1117	0	29424	
1118	0	29380	
1119	0	29368	
1120	0	29338	
1121	0	29386	
1122	0	29336	
1123	0	29260	
1124	0	29220	
1125	0	29132	
1126	0	29092	
1127	0	29036	
1128	0	29028	
1129	0	29030	
1130	0	29076	
1131	0	29020	
1132	0	28872	
1133	0	28948	
1134	0	28929	
1135	0	28816	
1136	0	28784	
1137	0	28908	
1138	0	28920	
1139	0	28848	
1140	0	28736	
1141	0	28774	
1142	0	28799	
1143	0	28840	
1144	0	28656	
1145	0	28589	
1146	0	28524	
1147	0	28572	
1148	0	28545	
1149	0	28512	
1150	0	28539	
1151	0	28516	
1152	0	28448	
1153	0	28451	
1154	0	28538	
1155	0	28450	
1156	0	28344	
1157	0	28295	
1158	0	28262	
1159	0	28349	
1160	0	28136	
1161	0	28256	
1162	0	28240	
1163	0	28072	
1164	0	28136	
1165	0	28120	
1166	0	28124	
1167	0	28148	
1168	0	28136	
1169	0	28006	
1170	0	28111	
1171	0	28076	
1172	0	27950	
1173	0	27984	
1174	0	27966	
1175	0	27969	
1176	0	27943	
1177	0	27842	
1178	0	27908	
1179	0	27836	
1180	0	27860	
1181	0	27772	
1182	0	27876	
1183	0	27808	
1184	0	27688	
1185	0	27732	
1186	0	27712	
1187	0	27586	
1188	0	27632	
1189	0	27608	
1190	0	27694	
1191	0	27680	
1192	0	27601	
1193	0	27574	
1194	0	27712	
1195	0	27597	
1196	0	27642	
1197	0	27574	
1198	0	27482	
1199	0	27504	
1200	0	27500	
1201	0	27408	
1202	0	27460	
1203	0	27386	
1204	0	27341	
1205	0	27336	
1206	0	27336	
1207	0	27298	
1208	0	27310	
1209	0	27314	
1210	0	27276	
1211	0	27256	
1212	0	27342	
1213	0	27315	
1214	0	27222	
1215	0	27182	
1216	0	27164	
1217	0	27136	
1218	0	27168	
1219	0	27053	
1220	0	27032	
1221	0	27064	
1222	0	27104	
1223	0	27052	
1224	0	26964	
1225	0	26944	
1226	0	27016	
1227	0	26932	
1228	0	26984	
1229	0	27028	
1230	0	27029	
1231	0	26931	
1232	0	26865	
1233	0	26888	
1234	0	26986	
1235	0	26968	
1236	0	26898	
1237	0	26810	
1238	0	26766	
1239	0	26768	
1240	0	26844	
1241	0	26876	
1242	0	26880	
1243	0	26902	
1244	0	26704	
1245	0	26720	
1246	0	26750	
1247	0	26781	
1248	0	26665	
1249	0	26708	
1250	0	26622	
1251	0	26676	
1252	0	26784	
1253	0	26772	
1254	0	26730	
1255	0	26726	
1256	0	26679	
1257	0	26636	
1258	0	26640	
1259	0	26568	
1260	0	26608	
1261	0	26530	
1262	0	26685	
1263	0	26594	
1264	0	26560	
1265	0	26632	
1266	0	26671	
1267	0	26584	
1268	0	26487	
1269	0	26492	
1270	0	26520	
1271	0	26561	
1272	0	26530	
1273	0	26536	
1274	0	26560	
1275	0	26440	
1276	0	26410	
1277	0	26457	
1278	0	26569	
1279	0	26514	
1280	0	26504	
1281	0	26432	
1282	0	26488	
1283	0	26452	
1284	0	26348	
1285	0	26412	
1286	0	26448	
1287	0	26433	
1288	0	26392	
1289	0	26426	
1290	0	26414	
1291	0	26484	
1292	0	26417	
1293	0	26391	
1294	0	26420	
1295	0	26460	
1296	0	26330	
1297	0	26440	
1298	0	26381	
1299	0	26287	
1300	0	26390	
1301	0	26336	
1302	0	26453	
1303	0	26439	
1304	0	26392	
1305	0	26336	
1306	0	26352	
1307	0	26313	
1308	0	26251	
1309	0	26310	
1310	0	26316	
1311	0	26292	
1312	0	26348	
1313	0	26350	
1314	0	26410	
1315	0	26392	
1316	0	26392	
1317	0	26381	
1318	0	26366	
1319	0	26258	
1320	0	26320	
1321	0	26293	
1322	0	26401	
1323	0	26248	
1324	0	26228	
1325	0	26361	
1326	0	26388	
1327	0	26324	
1328	0	26275	
1329	0	26320	
1330	0	26209	
1331	0	26273	
1332	0	26352	
1333	0	26402	
1334	0	26388	
1335	0	26232	
1336	0	26237	
1337	0	26262	
1338	0	26205	
1339	0	26373	
1340	0	26321	
1341	0	26298	
1342	0	26476	
1343	0	26328	
1344	0	26296	
1345	0	26341	
1346	0	26356	
1347	0	26326	
1348	0	26277	
1349	0	26248	
1350	0	26248	
1351	0	26291	
1352	0	26274	
1353	0	26412	
1354	0	26408	
1355	0	26310	
1356	0	26268	
1357	0	26360	
1358	0	26308	
1359	0	26184	
1360	0	26306	
1361	0	26274	
1362	0	26272	
1363	0	26245	
1364	0	26228	
1365	0	26264	
1366	0	26359	
1367	0	26284	
1368	0	26245	
1369	0	26256	
1370	0	26116	
1371	0	26137	
1372	0	26198	
1373	0	26252	
1374	0	26240	
1375	0	26128	
1376	0	26204	
1377	0	26238	
1378	0	26223	
1379	0	26204	
1380	0	26164	
1381	0	26152	
1382	0	26150	
1383	0	26104	
1384	0	26110	
1385	0	26276	
1386	0	26184	
1387	0	26045	
1388	0	26088	
1389	0	26100	
1390	0	26142	
1391	0	26168	
1392	0	26092	
1393	0	26220	
1394	0	26196	
1395	0	26105	
1396	0	26047	
1397	0	26103	
1398	0	26104	
1399	0	26042	
1400	0	26021	
1401	0	25988	
1402	0	26178	
1403	0	26092	
1404	0	26140	
1405	0	26148	
1406	0	26143	
1407	0	26008	
1408	0	26076	
1409	0	26028	
1410	0	26034	
1411	0	26036	
1412	0	25932	
1413	0	25986	
1414	0	26072	
1415	0	26001	
1416	0	25986	
1417	0	26124	
1418	0	26100	
1419	0	25904	
1420	0	25896	
1421	0	25956	
1422	0	26089	
1423	0	25944	
1424	0	25882	
1425	0	25920	
1426	0	25948	
1427	0	25909	
1428	0	25904	
1429	0	25885	
1430	0	25860	
1431	0	25896	
1432	0	25792	
1433	0	25917	
1434	0	25908	
1435	0	25935	
1436	0	25912	
1437	0	25816	
1438	0	25916	
1439	0	25792	
1440	0	25860	
1441	0	25697	
1442	0	25788	
1443	0	25764	
1444	0	25658	
1445	0	25666	
1446	0	25775	
1447	0	25716	
1448	0	25687	
1449	0	25642	
1450	0	25628	
1451	0	25756	
1452	0	25674	
1453	0	25596	
1454	0	25706	
1455	0	25660	
1456	0	25546	
1457	0	25632	
1458	0	25704	
1459	0	25546	
1460	0	25684	
1461	0	25524	
1462	0	25648	
1463	0	25596	
1464	0	25600	
1465	0	25540	
1466	0	25620	
1467	0	25532	
1468	0	25536	
1469	0	25489	
1470	0	25576	
1471	0	25617	
1472	0	25584	
1473	0	25480	
1474	0	25652	
1475	0	25546	
1476	0	25536	
1477	0	25548	
1478	0	25533	
1479	0	25410	
1480	0	25524	
1481	0	25441	
1482	0	25548	
1483	0	25572	
1484	0	25480	
1485	0	25504	
1486	0	25534	
1487	0	25408	
1488	0	25421	
1489	0	25389	
1490	0	25341	
1491	0	25344	
1492	0	25417	
1493	0	25397	
1494	0	25499	
1495	0	25464	
1496	0	25440	
1497	0	25441	
1498	0	25446	
1499	0	25260	
1500	0	25412	
1501	0	25388	
1502	0	25316	
1503	0	25288	
1504	0	25248	
1505	0	25332	
1506	0	25356	
1507	0	25250	
1508	0	25214	
1509	0	25179	
1510	0	25270	
1511	0	25272	
1512	0	25164	
1513	0	25260	
1514	0	25376	
1515	0	25152	
1516	0	25144	
1517	0	25318	
1518	0	25318	
1519	0	25112	
1520	0	25161	
1521	0	25124	
1522	0	25197	
1523	0	25277	
1524	0	25212	
1525	0	25184	
1526	0	25212	
1527	0	25108	
1528	0	25024	
1529	0	25075	
1530	0	25114	
1531	0	25084	
1532	0	25061	
1533	0	25140	
1534	0	25148	
1535	0	25178	
1536	0	25152	
1537	0	25094	
1538	0	25053	
1539	0	24980	
1540	0	24954	
1541	0	24990	
1542	0	25156	
1543	0	25000	
1544	0	24908	
1545	0	24993	
1546	0	25044	
1547	0	24952	
1548	0	24936	
1549	0	24960	
1550	0	24964	
1551	0	24908	
1552	0	24972	
1553	0	24922	
1554	0	24996	
1555	0	24996	
1556	0	24908	
1557	0	24960	
1558	0	24892	
1559	0	24884	
1560	0	24765	
1561	0	24916	
1562	0	24872	
1563	0	24852	
1564	0	24823	
1565	0	24852	
1566	0	24866	
1567	0	24776	
1568	0	24781	
1569	0	24776	
1570	0	24768	
1571	0	24762	
1572	0	24620	
1573	0	24712	
1574	0	24780	
1575	0	24756	
1576	0	24730	
1577	0	24744	
1578	0	24726	
1579	0	24796	
1580	0	24666	
1581	0	24730	
1582	0	24718	
1583	0	24701	
1584	0	24678	
1585	0	24730	
1586	0	24768	
1587	0	24719	
1588	0	24625	
1589	0	24642	
1590	0	24636	
1591	0	24732	
1592	0	24569	
1593	0	24644	
1594	0	24620	
1595	0	24596	
1596	0	24567	
1597	0	24614	
1598	0	24604	
1599	0	24632	
1600	0	24496	
1601	0	24584	
1602	0	24576	
1603	0	24625	
1604	0	24536	
1605	0	24515	
1606	0	24564	
1607	0	24419	
1608	0	24464	
1609	0	24550	
1610	0	24438	
1611	0	24488	
1612	0	24433	
1613	0	24428	
1614	0	24596	
1615	0	24514	
1616	0	24409	
1617	0	24474	
1618	0	24458	
1619	0	24398	
1620	0	24324	
1621	0	24482	
1622	0	24534	
1623	0	24360	
1624	0	24308	
1625	0	24398	
1626	0	24441	
1627	0	24442	
1628	0	24321	
1629	0	24317	
1630	0	24300	
1631	0	24285	
1632	0	24244	
1633	0	24272	
1634	0	24389	
1635	0	24373	
1636	0	24308	
1637	0	24321	
1638	0	24408	
1639	0	24300	
1640	0	24338	
1641	0	24248	
1642	0	24320	
1643	0	24328	
1644	0	24153	
1645	0	24258	
1646	0	24269	
1647	0	24172	
1648	0	24296	
1649	0	24228	
1650	0	24236	
1651	0	24165	
1652	0	24277	
1653	0	24240	
1654	0	24288	
1655	0	24256	
1656	0	24232	
1657	0	24196	
1658	0	24168	
1659	0	24172	
1660	0	24181	
1661	0	24132	
1662	0	24125	
1663	0	24098	
1664	0	24140	
1665	0	24113	
1666	0	24240	
1667	0	24076	
1668	0	24136	
1669	0	24070	
1670	0	23992	
1671	0	24101	
1672	0	24170	
1673	0	24172	
1674	0	24141	
1675	0	24118	
1676	0	24144	
1677	0	24104	
1678	0	24105	
1679	0	24082	
1680	0	24014	
1681	0	23959	
1682	0	24033	
1683	0	23978	
1684	0	24032	
1685	0	24028	
1686	0	24008	
1687	0	24002	
1688	0	24015	
1689	0	24048	
1690	0	24000	
1691	0	24077	
1692	0	23999	
1693	0	24020	
1694	0	24122	
1695	0	23988	
1696	0	23964	
1697	0	23981	
1698	0	23852	
1699	0	23989	
1700	0	23960	
1701	0	23976	
1702	0	23905	
1703	0	23980	
1704	0	23960	
1705	0	23967	
1706	0	23926	
1707	0	23809	
1708	0	23833	
1709	0	23904	
1710	0	23820	
1711	0	23904	
1712	0	23880	
1713	0	23866	
1714	0	23927	
1715	0	23832	
1716	0	23837	
1717	0	23920	
1718	0	23957	
1719	0	23952	
1720	0	23840	
1721	0	23856	
1722	0	23838	
1723	0	23918	
1724	0	23816	
1725	0	23880	
1726	0	23941	
1727	0	23861	
1728	0	23914	
1729	0	23853	
1730	0	23808	
1731	0	23940	
1732	0	23918	
1733	0	23892	
1734	0	23860	
1735	0	23908	
1736	0	23784	
1737	0	23852	
1738	0	23841	
1739	0	23884	
1740	0	23957	
1741	0	23852	
1742	0	23884	
1743	0	23986	
1744	0	23829	
1745	0	23828	
1746	0	23862	
1747	0	23864	
1748	0	23852	
1749	0	23768	
1750	0	23695	
1751	0	23922	
1752	0	23780	
1753	0	23808	
1754	0	23926	
1755	0	23980	
1756	0	23896	
1757	0	23768	
1758	0	23812	
1759	0	23864	
1760	0	23812	
1761	0	23708	
1762	0	23853	
1763	0	23849	
1764	0	23816	
1765	0	23828	
1766	0	23880	
1767	0	23820	
1768	0	23760	
1769	0	23778	
1770	0	23748	
1771	0	23924	
1772	0	23844	
1773	0	23787	
1774	0	23812	
1775	0	23759	
1776	0	23728	
1777	0	23716	
1778	0	23781	
1779	0	23856	
1780	0	23724	
1781	0	23724	
1782	0	23872	
1783	0	23958	
1784	0	23773	
1785	0	23780	
1786	0	23816	
1787	0	23756	
1788	0	23704	
1789	0	23752	
1790	0	23768	
1791	0	23832	
1792	0	23712	
1793	0	23756	
1794	0	23858	
1795	0	23845	
1796	0	23862	
1797	0	23788	
1798	0	23760	
1799	0	23800	
1800	0	23732	
1801	0	23768	
1802	0	23832	
1803	0	23853	
1804	0	23682	
1805	0	23664	
1806	0	23722	
1807	0	23698	
1808	0	23744	
1809	0	23716	
1810	0	23700	
1811	0	23833	
1812	0	23816	
1813	0	23792	
1814	0	23757	
1815	0	23746	
1816	0	23649	
1817	0	23676	
1818	0	23640	
1819	0	23809	
1820	0	23648	
1821	0	23684	
1822	0	23682	
1823	0	23657	
1824	0	23594	
1825	0	23682	
1826	0	23768	
1827	0	23728	
1828	0	23700	
1829	0	23552	
1830	0	23662	
1831	0	23696	
1832	0	23673	
1833	0	23674	
1834	0	23684	
1835	0	23637	
1836	0	23552	
1837	0	23684	
1838	0	23656	
1839	0	23704	
1840	0	23710	
1841	0	23596	
1842	0	23693	
1843	0	23772	
1844	0	23676	
1845	0	23661	
1846	0	23632	
1847	0	23517	
1848	0	23517	
1849	0	23664	
1850	0	23593	
1851	0	23720	
1852	0	23605	
1853	0	23649	
1854	0	23632	
1855	0	23650	
1856	0	23700	
1857	0	23648	
1858	0	23560	
1859	0	23616	
1860	0	23464	
1861	0	23522	
1862	0	23624	
1863	0	23664	
1864	0	23626	
1865	0	23584	
1866	0	23584	
1867	0	23528	
1868	0	23574	
1869	0	23593	
1870	0	23598	
1871	0	23592	
1872	0	23642	
1873	0	23648	
1874	0	23693	
1875	0	23562	
1876	0	23560	
1877	0	23567	
1878	0	23584	
1879	0	23628	
1880	0	23609	
1881	0	23570	
1882	0	23612	
1883	0	23584	
1884	0	23504	
1885	0	23528	
1886	0	23556	
1887	0	23487	
1888	0	23557	
1889	0	23500	
1890	0	23464	
1891	0	23512	
1892	0	23645	
1893	0	23526	
1894	0	23554	
1895	0	23469	
1896	0	23466	
1897	0	23436	
1898	0	23512	
1899	0	23518	
1900	0	23382	
1901	0	23496	
1902	0	23542	
1903	0	23572	
1904	0	23542	
1905	0	23568	
1906	0	23533	
1907	0	23458	
1908	0	23430	
1909	0	23506	
1910	0	23441	
1911	0	23527	
1912	0	23484	
1913	0	23476	
1914	0	23473	
1915	0	23450	
1916	0	23476	
1917	0	23449	
1918	0	23425	
1919	0	23392	
1920	0	23361	
1921	0	23474	
1922	0	23485	
1923	0	23492	
1924	0	23340	
1925	0	23406	
1926	0	23436	
1927	0	23336	
1928	0	23364	
1929	0	23396	
1930	0	23343	
1931	0	23362	
1932	0	23390	
1933	0	23376	
1934	0	23443	
1935	0	23424	
1936	0	23405	
1937	0	23406	
1938	0	23353	
1939	0	23432	
1940	0	23316	
1941	0	23308	
1942	0	23408	
1943	0	23450	
1944	0	23319	
1945	0	23372	
1946	0	23374	
1947	0	23264	
1948	0	23264	
1949	0	23304	
1950	0	23341	
1951	0	23352	
1952	0	23245	
1953	0	23300	
1954	0	23462	
1955	0	23384	
1956	0	23340	
1957	0	23280	
1958	0	23372	
1959	0	23304	
1960	0	23332	
1961	0	23325	
1962	0	23405	
1963	0	23492	
1964	0	23360	
1965	0	23316	
1966	0	23392	
1967	0	23173	
1968	0	23189	
1969	0	23266	
1970	0	23317	
1971	0	23399	
1972	0	23356	
1973	0	23340	
1974	0	23362	
1975	0	23360	
1976	0	23416	
1977	0	23404	
1978	0	23412	
1979	0	23216	
1980	0	23336	
1981	0	23347	
1982	0	23388	
1983	0	23360	
1984	0	23290	
1985	0	23316	
1986	0	23344	
1987	0	23274	
1988	0	23302	
1989	0	23253	
1990	0	23271	
1991	0	23332	
1992	0	23280	
1993	0	23268	
1994	0	23328	
1995	0	23404	
1996	0	23305	
1997	0	23255	
1998	0	23313	
1999	0	23276	
2000	0	23301	
2001	0	23244	
2002	0	23256	
2003	0	23350	
2004	0	23252	
2005	0	23224	
2006	0	23319	
2007	0	23240	
2008	0	23269	
2009	0	23129	
2010	0	23306	
2011	0	23356	
2012	0	23356	
2013	0	23234	
2014	0	23345	
2015	0	23364	
2016	0	23313	
2017	0	23256	
2018	0	23280	
2019	0	23316	
2020	0	23292	
2021	0	23112	
2022	0	23244	
2023	0	23322	
2024	0	23271	
2025	0	23244	
2026	0	23296	
2027	0	23168	
2028	0	23202	
2029	0	23200	
2030	0	23206	
2031	0	23261	
2032	0	23240	
2033	0	23222	
2034	0	23148	
2035	0	23248	
2036	0	23316	
2037	0	23308	
2038	0	23344	
2039	0	23438	
2040	0	23436	
2041	0	23661	
2042	0	23761	
2043	0	23908	
2044	0	23970	
2045	0	24086	
2046	0	24213	
2047	0	24368	
2048	0	24573	
2049	0	24918	
2050	0	25172	
2051	0	25466	
2052	0	25745	
2053	0	26062	
2054	0	26433	
2055	0	26815	
2056	0	27141	
2057	0	27560	
2058	0	27952	
2059	0	28501	
2060	0	28857	
2061	0	29344	
2062	0	29841	
2063	0	30376	
2064	0	30746	
2065	0	31296	
2066	0	31857	
2067	0	32465	
2068	0	32977	
2069	0	33493	
2070	0	33984	
2071	0	34618	
2072	0	35154	
2073	0	35644	
2074	0	36210	
2075	0	36721	
2076	0	37218	
2077	0	37732	
2078	0	38174	
2079	0	38792	
2080	0	39200	
2081	0	39796	
2082	0	40292	
2083	0	40808	
2084	0	41114	
2085	0	41568	
2086	0	41948	
2087	0	42302	
2088	0	42778	
2089	0	43136	
2090	0	43482	
2091	0	43965	
2092	0	44372	
2093	0	44648	
2094	0	45208	
2095	0	45472	
2096	0	45788	
2097	0	46040	
2098	0	46372	
2099	0	46592	
2100	0	46942	
2101	0	47104	
2102	0	47452	
2103	0	47800	
2104	0	48016	
2105	0	48324	
2106	0	48608	
2107	0	48840	
2108	0	49040	
2109	0	49301	
2110	0	49552	
2111	0	49792	
2112	0	50064	
2113	0	50210	
2114	0	50536	
2115	0	50588	
2116	0	50693	
2117	0	50836	
2118	0	51216	
2119	0	51380	
2120	0	51500	
2121	0	51573	
2122	0	51854	
2123	0	52096	
2124	0	52120	
2125	0	52272	
2126	0	52396	
2127	0	52488	
2128	0	52659	
2129	0	52696	
2130	0	52872	
2131	0	53065	
2132	0	53216	
2133	0	53120	
2134	0	53344	
2135	0	53424	
2136	0	53528	
2137	0	53544	
2138	0	53612	
2139	0	53816	
2140	0	53836	
2141	0	53904	
2142	0	53920	
2143	0	54065	
2144	0	54040	
2145	0	54117	
2146	0	54188	
2147	0	54143	
2148	0	54156	
2149	0	54244	
2150	0	54232	
2151	0	54328	
2152	0	54325	
2153	0	54338	
2154	0	54479	
2155	0	54390	
2156	0	54408	
2157	0	54404	
2158	0	54464	
2159	0	54314	
2160	0	54421	
2161	0	54248	
2162	0	54264	
2163	0	54244	
2164	0	54208	
2165	0	54264	
2166	0	54240	
2167	0	54068	
2168	0	54156	
2169	0	54114	
2170	0	54069	
2171	0	54072	
2172	0	54012	
2173	0	53984	
2174	0	54024	
2175	0	53852	
2176	0	53744	
2177	0	53701	
2178	0	53656	
2179	0	53632	
2180	0	53548	
2181	0	53396	
2182	0	53354	
2183	0	53392	
2184	0	53282	
2185	0	53215	
2186	0	53211	
2187	0	53088	
2188	0	53044	
2189	0	52948	
2190	0	52888	
2191	0	52912	
2192	0	52784	
2193	0	52666	
2194	0	52576	
2195	0	52490	
2196	0	52359	
2197	0	52296	
2198	0	52264	
2199	0	52312	
2200	0	52120	
2201	0	52052	
2202	0	51968	
2203	0	51880	
2204	0	51744	
2205	0	51744	
2206	0	51596	
2207	0	51456	
2208	0	51328	
2209	0	51332	
2210	0	51264	
2211	0	51258	
2212	0	51152	
2213	0	51092	
2214	0	50952	
2215	0	50888	
2216	0	50749	
2217	0	50712	
2218	0	50544	
2219	0	50608	
2220	0	50490	
2221	0	50328	
2222	0	50260	
2223	0	50312	
2224	0	50124	
2225	0	50048	
2226	0	49920	
2227	0	49864	
2228	0	49808	
2229	0	49692	
2230	0	49580	
2231	0	49600	
2232	0	49476	
2233	0	49332	
2234	0	49312	
2235	0	49241	
2236	0	49172	
2237	0	49104	
2238	0	49032	
2239	0	48880	
2240	0	48928	
2241	0	48724	
2242	0	48660	
2243	0	48613	
2244	0	48561	
2245	0	48440	
2246	0	48440	
2247	0	48336	
2248	0	48252	
2249	0	48193	
2250	0	48117	
2251	0	48128	
2252	0	48024	
2253	0	47904	
2254	0	47888	
2255	0	47896	
2256	0	47824	
2257	0	47712	
2258	0	47632	
2259	0	47488	
2260	0	47540	
2261	0	47404	
2262	0	47140	
2263	0	47264	
2264	0	47137	
2265	0	46968	
2266	0	46860	
2267	0	46908	
2268	0	46784	
2269	0	46720	
2270	0	46650	
2271	0	46652	
2272	0	46552	
2273	0	46464	
2274	0	46384	
2275	0	46348	
2276	0	46188	
2277	0	46116	
2278	0	45976	
2279	0	46038	
2280	0	46096	
2281	0	45872	
2282	0	45872	
2283	0	45716	
2284	0	45598	
2285	0	45520	
2286	0	45348	
2287	0	45376	
2288	0	45248	
2289	0	45225	
2290	0	45116	
2291	0	45156	
2292	0	45076	
2293	0	44892	
2294	0	44936	
2295	0	44816	
2296	0	44688	
2297	0	44524	
2298	0	44476	
2299	0	44348	
2300	0	44404	
2301	0	44304	
2302	0	44213	
2303	0	44120	
2304	0	44008	
2305	0	43928	
2306	0	43848	
2307	0	43712	
2308	0	43656	
2309	0	43708	
2310	0	43512	
2311	0	43468	
2312	0	43480	
2313	0	43392	
2314	0	43272	
2315	0	43288	
2316	0	43088	
2317	0	43078	
2318	0	42916	
2319	0	42922	
2320	0	42832	
2321	0	42804	
2322	0	42584	
2323	0	42640	
2324	0	42580	
2325	0	42486	
2326	0	42462	
2327	0	42392	
2328	0	42248	
2329	0	42144	
2330	0	42120	
2331	0	42174	
2332	0	42088	
2333	0	42010	
2334	0	42060	
2335	0	41905	
2336	0	41944	
2337	0	41896	
2338	0	41816	
2339	0	41668	
2340	0	41604	
2341	0	41640	
2342	0	41468	
2343	0	41498	
2344	0	41396	
2345	0	41379	
2346	0	41280	
2347	0	41256	
2348	0	41276	
2349	0	41248	
2350	0	41168	
2351	0	41157	
2352	0	41090	
2353	0	41048	
2354	0	41094	
2355	0	41070	
2356	0	41020	
2357	0	41076	
2358	0	40953	
2359	0	40904	
2360	0	40928	
2361	0	40916	
2362	0	40896	
2363	0	40780	
2364	0	40644	
2365	0	40660	
2366	0	40634	
2367	0	40632	
2368	0	40576	
2369	0	40585	
2370	0	40580	
2371	0	40652	
2372	0	40505	
2373	0	40438	
2374	0	40628	
2375	0	40540	
2376	0	40408	
2377	0	40376	
2378	0	40400	
2379	0	40416	
2380	0	40356	
2381	0	40320	
2382	0	40232	
2383	0	40245	
2384	0	40232	
2385	0	40189	
2386	0	40192	
2387	0	40192	
2388	0	40197	
2389	0	40122	
2390	0	40109	
2391	0	40148	
2392	0	40124	
2393	0	39984	
2394	0	40028	
2395	0	40016	
2396	0	40015	
2397	0	39940	
2398	0	39968	
2399	0	39878	
2400	0	39940	
2401	0	39896	
2402	0	39924	
2403	0	39980	
2404	0	39850	
2405	0	39704	
2406	0	39682	
2407	0	39808	
2408	0	39680	
2409	0	39717	
2410	0	39716	
2411	0	39666	
2412	0	39720	
2413	0	39612	
2414	0	39740	
2415	0	39636	
2416	0	39628	
2417	0	39541	
2418	0	39500	
2419	0	39490	
2420	0	39576	
2421	0	39408	
2422	0	39503	
2423	0	39508	
2424	0	39414	
2425	0	39297	
2426	0	39332	
2427	0	39378	
2428	0	39316	
2429	0	39248	
2430	0	39224	
2431	0	39278	
2432	0	39204	
2433	0	39194	
2434	0	39204	
2435	0	39162	
2436	0	39159	
2437	0	39150	
2438	0	39176	
2439	0	39008	
2440	0	39018	
2441	0	38937	
2442	0	38904	
2443	0	38922	
2444	0	38776	
2445	0	38704	
2446	0	38688	
2447	0	38700	
2448	0	38590	
2449	0	38656	
2450	0	38624	
2451	0	38610	
2452	0	38640	
2453	0	38447	
2454	0	38565	
2455	0	38496	
2456	0	38364	
2457	0	38328	
2458	0	38213	
2459	0	38260	
2460	0	38221	
2461	0	38168	
2462	0	38192	
2463	0	38184	
2464	0	38100	
2465	0	37967	
2466	0	37921	
2467	0	37928	
2468	0	37946	
2469	0	37820	
2470	0	37812	
2471	0	37717	
2472	0	37845	
2473	0	37668	
2474	0	37762	
2475	0	37692	
2476	0	37654	
2477	0	37642	
2478	0	37540	
2479	0	37445	
2480	0	37408	
2481	0	37300	
2482	0	37328	
2483	0	37320	
2484	0	37202	
2485	0	37125	
2486	0	36992	
2487	0	37005	
2488	0	36968	
2489	0	37018	
2490	0	37032	
2491	0	36896	
2492	0	36856	
2493	0	36676	
2494	0	36776	
2495	0	36720	
2496	0	36644	
2497	0	36548	
2498	0	36498	
2499	0	36508	
2500	0	36478	
2501	0	36357	
2502	0	36332	
2503	0	36336	
2504	0	36188	
2505	0	36130	
2506	0	36132	
2507	0	36004	
2508	0	35948	
2509	0	35900	
2510	0	35955	
2511	0	35930	
2512	0	35756	
2513	0	35704	
2514	0	35705	
2515	0	35672	
2516	0	35568	
2517	0	35516	
2518	0	35562	
2519	0	35482	
2520	0	35253	
2521	0	35305	
2522	0	35342	
2523	0	35276	
2524	0	35168	
2525	0	35137	
2526	0	35148	
2527	0	35040	
2528	0	34975	
2529	0	35008	
2530	0	35047	
2531	0	34877	
2532	0	34708	
2533	0	34696	
2534	0	34801	
2535	0	34820	
2536	0	34664	
2537	0	34644	
2538	0	34545	
2539	0	34496	
2540	0	34456	
2541	0	34336	
2542	0	34405	
2543	0	34335	
2544	0	34106	
2545	0	34024	
2546	0	34060	
2547	0	34056	
2548	0	34004	
2549	0	33940	
2550	0	33854	
2551	0	33892	
2552	0	33865	
2553	0	33780	
2554	0	33754	
2555	0	33696	
2556	0	33668	
2557	0	33612	
2558	0	33464	
2559	0	33576	
2560	0	33354	
2561	0	33528	
2562	0	33388	
2563	0	33344	
2564	0	33200	
2565	0	33068	
2566	0	33184	
2567	0	33072	
2568	0	33000	
2569	0	33008	
2570	0	32981	
2571	0	32920	
2572	0	32949	
2573	0	32888	
2574	0	32860	
2575	0	32793	
2576	0	32650	
2577	0	32708	
2578	0	32666	
2579	0	32656	
2580	0	32480	
2581	0	32424	
2582	0	32349	
2583	0	32388	
2584	0	32290	
2585	0	32312	
2586	0	32328	
2587	0	32136	
2588	0	32144	
2589	0	32106	
2590	0	32052	
2591	0	32125	
2592	0	32097	
2593	0	31970	
2594	0	32072	
2595	0	31904	
2596	0	31804	
2597	0	31880	
2598	0	31788	
2599	0	31668	
2600	0	31631	
2601	0	31604	
2602	0	31613	
2603	0	31556	
2604	0	31430	
2605	0	31412	
2606	0	31461	
2607	0	31325	
2608	0	31221	
2609	0	31292	
2610	0	31343	
2611	0	31286	
2612	0	31240	
2613	0	31165	
2614	0	31120	
2615	0	31100	
2616	0	31002	
2617	0	31008	
2618	0	30976	
2619	0	30884	
2620	0	30940	
2621	0	30805	
2622	0	30772	
2623	0	30796	
2624	0	30612	
2625	0	30682	
2626	0	30626	
2627	0	30588	
2628	0	30488	
2629	0	30514	
2630	0	30521	
2631	0	30424	
2632	0	30556	
2633	0	30438	
2634	0	30594	
2635	0	30440	
2636	0	30280	
2637	0	30298	
2638	0	30334	
2639	0	30174	
2640	0	30152	
2641	0	30076	
2642	0	30120	
2643	0	30075	
2644	0	30032	
2645	0	29986	
2646	0	30004	
2647	0	29924	
2648	0	29844	
2649	0	29856	
2650	0	29924	
2651	0	29864	
2652	0	29802	
2653	0	29701	
2654	0	29676	
2655	0	29664	
2656	0	29564	
2657	0	29580	
2658	0	29536	
2659	0	29625	
2660	0	29600	
2661	0	29480	
2662	0	29530	
2663	0	29536	
2664	0	29392	
2665	0	29339	
2666	0	29354	
2667	0	29284	
2668	0	29236	
2669	0	29220	
2670	0	29237	
2671	0	29256	
2672	0	29232	
2673	0	29186	
2674	0	29224	
2675	0	29146	
2676	0	29014	
2677	0	29082	
2678	0	28956	
2679	0	29023	
2680	0	28800	
2681	0	28912	
2682	0	28920	
2683	0	28905	
2684	0	28864	
2685	0	28852	
2686	0	28784	
2687	0	28688	
2688	0	28728	
2689	0	28672	
2690	0	28724	
2691	0	28702	
2692	0	28666	
2693	0	28608	
2694	0	28688	
2695	0	28696	
2696	0	28570	
2697	0	28610	
2698	0	28514	
2699	0	28556	
2700	0	28554	
2701	0	28506	
2702	0	28432	
2703	0	28454	
2704	0	28408	
2705	0	28370	
2706	0	28364	
2707	0	28208	
2708	0	28222	
2709	0	28328	
2710	0	28332	
2711	0	28256	
2712	0	28273	
2713	0	28196	
2714	0	28247	
2715	0	28272	
2716	0	28235	
2717	0	28204	
2718	0	28172	
2719	0	28050	
2720	0	28120	
2721	0	28069	
2722	0	28028	
2723	0	28065	
2724	0	28066	
2725	0	27975	
2726	0	28000	
2727	0	27928	
2728	0	27849	
2729	0	27916	
2730	0	27870	
2731	0	28032	
2732	0	27879	
2733	0	27839	
2734	0	27772	
2735	0	27724	
2736	0	27760	
2737	0	27833	
2738	0	27752	
2739	0	27745	
2740	0	27640	
2741	0	27680	
2742	0	27724	
2743	0	27776	
2744	0	27740	
2745	0	27617	
2746	0	27619	
2747	0	27654	
2748	0	27592	
2749	0	27434	
2750	0	27525	
2751	0	27567	
2752	0	27612	
2753	0	27508	
2754	0	27557	
2755	0	27584	
2756	0	27492	
2757	0	27587	
2758	0	27568	
2759	0	27459	
2760	0	27482	
2761	0	27376	
2762	0	27378	
2763	0	27472	
2764	0	27471	
2765	0	27348	
2766	0	27378	
2767	0	27354	
2768	0	27362	
2769	0	27274	
2770	0	27397	
2771	0	27401	
2772	0	27356	
2773	0	27339	
2774	0	27268	
2775	0	27264	
2776	0	27200	
2777	0	27180	
2778	0	27086	
2779	0	27198	
2780	0	27154	
2781	0	27200	
2782	0	27184	
2783	0	27158	
2784	0	27144	
2785	0	27134	
2786	0	27176	
2787	0	27168	
2788	0	27084	
2789	0	27096	
2790	0	27070	
2791	0	27204	
2792	0	27140	
2793	0	27116	
2794	0	27008	
2795	0	27064	
2796	0	27002	
2797	0	26996	
2798	0	26964	
2799	0	26994	
2800	0	26993	
2801	0	26954	
2802	0	26935	
2803	0	26868	
2804	0	26856	
2805	0	26772	
2806	0	26868	
2807	0	26888	
2808	0	26832	
2809	0	26792	
2810	0	26848	
2811	0	26820	
2812	0	26969	
2813	0	26796	
2814	0	26856	
2815	0	26849	
2816	0	26740	
2817	0	26777	
2818	0	26756	
2819	0	26754	
2820	0	26870	
2821	0	26658	
2822	0	26634	
2823	0	26715	
2824	0	26790	
2825	0	26696	
2826	0	26640	
2827	0	26592	
2828	0	26624	
2829	0	26592	
2830	0	26589	
2831	0	26708	
2832	0	26652	
2833	0	26660	
2834	0	26592	
2835	0	26610	
2836	0	26632	
2837	0	26624	
2838	0	26548	
2839	0	26446	
2840	0	26596	
2841	0	26600	
2842	0	26474	
2843	0	26564	
2844	0	26449	
2845	0	26490	
2846	0	26440	
2847	0	26341	
2848	0	26410	
2849	0	26368	
2850	0	26392	
2851	0	26504	
2852	0	26428	
2853	0	26330	
2854	0	26344	
2855	0	26317	
2856	0	26265	
2857	0	26316	
2858	0	26268	
2859	0	26305	
2860	0	26348	
2861	0	26267	
2862	0	26258	
2863	0	26284	
2864	0	26196	
2865	0	26176	
2866	0	26233	
2867	0	26208	
2868	0	26114	
2869	0	26156	
2870	0	26237	
2871	0	26228	
2872	0	26220	
2873	0	26255	
2874	0	26104	
2875	0	26173	
2876	0	26078	
2877	0	26211	
2878	0	26154	
2879	0	26112	
2880	0	26158	
2881	0	26012	
2882	0	26052	
2883	0	26034	
2884	0	26044	
2885	0	26044	
2886	0	26031	
2887	0	25976	
2888	0	25960	
2889	0	25908	
2890	0	26012	
2891	0	25970	
2892	0	25896	
2893	0	25980	
2894	0	26057	
2895	0	25972	
2896	0	25892	
2897	0	25928	
2898	0	25896	
2899	0	25792	
2900	0	25908	
2901	0	25792	
2902	0	25824	
2903	0	25851	
2904	0	25764	
2905	0	25745	
2906	0	25685	
2907	0	25727	
2908	0	25698	
2909	0	25685	
2910	0	25642	
2911	0	25725	
2912	0	25716	
2913	0	25758	
2914	0	25748	
2915	0	25689	
2916	0	25664	
2917	0	25590	
2918	0	25628	
2919	0	25562	
2920	0	25573	
2921	0	25624	
2922	0	25548	
2923	0	25493	
2924	0	25460	
2925	0	25465	
2926	0	25454	
2927	0	25400	
2928	0	25376	
2929	0	25418	
2930	0	25480	
2931	0	25384	
2932	0	25438	
2933	0	25428	
2934	0	25324	
2935	0	25368	
2936	0	25312	
2937	0	25405	
2938	0	25301	
2939	0	25313	
2940	0	25196	
2941	0	25304	
2942	0	25253	
2943	0	25413	
2944	0	25388	
2945	0	25152	
2946	0	25188	
2947	0	25232	
2948	0	25234	
2949	0	25212	
2950	0	25220	
2951	0	25144	
2952	0	25132	
2953	0	25120	
2954	0	25200	
2955	0	25200	
2956	0	25140	
2957	0	25092	
2958	0	25114	
2959	0	25084	
2960	0	25088	
2961	0	25001	
2962	0	24963	
2963	0	25016	
2964	0	25080	
2965	0	24945	
2966	0	24957	
2967	0	25032	
2968	0	24929	
2969	0	24880	
2970	0	25008	
2971	0	25060	
2972	0	25040	
2973	0	24976	
2974	0	25023	
2975	0	24960	
2976	0	24912	
2977	0	24866	
2978	0	24953	
2979	0	24829	
2980	0	24764	
2981	0	24772	
2982	0	24758	
2983	0	24772	
2984	0	24898	
2985	0	24625	
2986	0	24722	
2987	0	24736	
2988	0	24610	
2989	0	24689	
2990	0	24688	
2991	0	24696	
2992	0	24714	
2993	0	24620	
2994	0	24742	
2995	0	24692	
2996	0	24672	
2997	0	24680	
2998	0	24620	
2999	0	24708	
3000	0	24552	
3001	0	24671	
3002	0	24519	
3003	0	24556	
3004	0	24560	
3005	0	24480	
3006	0	24405	
3007	0	24492	
3008	0	24477	
3009	0	24444	
3010	0	24494	
3011	0	24444	
3012	0	24532	
3013	0	24432	
3014	0	24508	
3015	0	24458	
3016	0	24516	
3017	0	24420	
3018	0	24488	
3019	0	24367	
3020	0	24389	
3021	0	24388	
3022	0	24318	
3023	0	24312	
3024	0	24309	
3025	0	24276	
3026	0	24286	
3027	0	24266	
3028	0	24160	
3029	0	24248	
3030	0	24320	
3031	0	24260	
3032	0	24228	
3033	0	24256	
3034	0	24158	
3035	0	24174	
3036	0	24222	
3037	0	24207	
3038	0	24216	
3039	0	24181	
3040	0	24128	
3041	0	24150	
3042	0	24192	
3043	0	24216	
3044	0	24145	
3045	0	24130	
3046	0	24082	
3047	0	24133	
3048	0	24072	
3049	0	24065	
3050	0	24068	
3051	0	24060	
3052	0	24064	
3053	0	24050	
3054	0	24060	
3055	0	24117	
3056	0	23988	
3057	0	24072	
3058	0	24038	
3059	0	23952	
3060	0	24084	
3061	0	24014	
3062	0	24044	
3063	0	24020	
3064	0	23977	
3065	0	23916	
3066	0	24002	
3067	0	24004	
3068	0	23916	
3069	0	23906	
3070	0	23904	
3071	0	23834	
3072	0	23877	
3073	0	23796	
3074	0	23912	
3075	0	23856	
3076	0	23896	
3077	0	23873	
3078	0	23936	
3079	0	23794	
3080	0	23768	
3081	0	23776	
3082	0	23777	
3083	0	23805	
3084	0	23792	
3085	0	23696	
3086	0	23828	
3087	0	23768	
3088	0	23664	
3089	0	23628	
3090	0	23756	
3091	0	23728	
3092	0	23722	
3093	0	23585	
3094	0	23616	
3095	0	23663	
3096	0	23636	
3097	0	23626	
3098	0	23668	
3099	0	23775	
3100	0	23538	
3101	0	23624	
3102	0	23596	
3103	0	23644	
3104	0	23592	
3105	0	23538	
3106	0	23581	
3107	0	23667	
3108	0	23557	
3109	0	23577	
3110	0	23550	
3111	0	23506	
3112	0	23450	
3113	0	23489	
3114	0	23592	
3115	0	23536	
3116	0	23524	
3117	0	23530	
3118	0	23488	
3119	0	23456	
3120	0	23576	
3121	0	23469	
3122	0	23480	
3123	0	23429	
3124	0	23392	
3125	0	23424	
3126	0	23501	
3127	0	23448	
3128	0	23404	
3129	0	23352	
3130	0	23460	
3131	0	23452	
3132	0	23461	
3133	0	23398	
3134	0	23413	
3135	0	23374	
3136	0	23388	
3137	0	23365	
3138	0	23452	
3139	0	23340	
3140	0	23329	
3141	0	23412	
3142	0	23335	
3143	0	23478	
3144	0	23384	
3145	0	23289	
3146	0	23324	
3147	0	23274	
3148	0	23268	
3149	0	23312	
3150	0	23340	
3151	0	23242	
3152	0	23292	
3153	0	23269	
3154	0	23308	
3155	0	23340	
3156	0	23325	
3157	0	23280	
3158	0	23288	
3159	0	23282	
3160	0	23234	
3161	0	23234	
3162	0	23295	
3163	0	23300	
3164	0	23232	
3165	0	23197	
3166	0	23314	
3167	0	23322	
3168	0	23118	
3169	0	23156	
3170	0	23136	
3171	0	23236	
3172	0	23184	
3173	0	23178	
3174	0	23152	
3175	0	23072	
3176	0	23032	
3177	0	23114	
3178	0	23172	
3179	0	23156	
3180	0	22976	
3181	0	23066	
3182	0	23192	
3183	0	23096	
3184	0	23062	
3185	0	23114	
3186	0	23154	
3187	0	23104	
3188	0	22976	
3189	0	23068	
3190	0	23049	
3191	0	23104	
3192	0	23090	
3193	0	23054	
3194	0	23104	
3195	0	23108	
3196	0	23002	
3197	0	23008	
3198	0	23076	
3199	0	23000	
3200	0	23104	
3201	0	23004	
3202	0	23024	
3203	0	22989	
3204	0	22974	
3205	0	22938	
3206	0	22905	
3207	0	22972	
3208	0	22982	
3209	0	22941	
3210	0	22973	
3211	0	22952	
3212	0	23005	
3213	0	22938	
3214	0	22948	
3215	0	22953	
3216	0	22929	
3217	0	22853	
3218	0	22943	
3219	0	22972	
3220	0	22894	
3221	0	22841	
3222	0	22928	
3223	0	23028	
3224	0	22863	
3225	0	22791	
3226	0	22844	
3227	0	22954	
3228	0	22882	
3229	0	22948	
3230	0	22916	
3231	0	22890	
3232	0	22876	
3233	0	22889	
3234	0	22920	
3235	0	22854	
3236	0	22746	
3237	0	22756	
3238	0	22816	
3239	0	22878	
3240	0	22834	
3241	0	22766	
3242	0	22909	
3243	0	22913	
3244	0	22870	
3245	0	22908	
3246	0	22876	
3247	0	22860	
3248	0	22820	
3249	0	22884	
3250	0	22988	
3251	0	22828	
3252	0	22824	
3253	0	22792	
3254	0	22896	
3255	0	22896	
3256	0	22928	
3257	0	22960	
3258	0	22936	
3259	0	22732	
3260	0	22824	
3261	0	22826	
3262	0	22872	
3263	0	22894	
3264	0	22817	
3265	0	22798	
3266	0	22780	
3267	0	22860	
3268	0	22754	
3269	0	22840	
3270	0	22841	
3271	0	22804	
3272	0	22848	
3273	0	22892	
3274	0	22786	
3275	0	22800	
3276	0	22844	
3277	0	22809	
3278	0	22827	
3279	0	22884	
3280	0	22780	
3281	0	22732	
3282	0	22740	
3283	0	22840	
3284	0	22772	
3285	0	22732	
3286	0	22752	
3287	0	22885	
3288	0	22752	
3289	0	22814	
3290	0	22756	
3291	0	22816	
3292	0	22960	
3293	0	22856	
3294	0	22849	
3295	0	22869	
3296	0	22884	
3297	0	22864	
3298	0	22878	
3299	0	22733	
3300	0	22904	
3301	0	22696	
3302	0	22772	
3303	0	22785	
3304	0	22744	
3305	0	22832	
3306	0	22744	
3307	0	22800	
3308	0	22756	
3309	0	22908	
3310	0	22852	
3311	0	22794	
3312	0	22958	
3313	0	22819	
3314	0	22864	
3315	0	22941	
3316	0	22923	
3317	0	22872	
3318	0	22944	
3319	0	22784	
3320	0	22798	
3321	0	22878	
3322	0	22917	
3323	0	22910	
3324	0	22868	
3325	0	22913	
3326	0	22862	
3327	0	22920	
3328	0	22893	
3329	0	22942	
3330	0	22918	
3331	0	23006	
3332	0	22928	
3333	0	22920	
3334	0	22876	
3335	0	22964	
3336	0	23028	
3337	0	22996	
3338	0	22922	
3339	0	22860	
3340	0	23012	
3341	0	22944	
3342	0	22972	
3343	0	22914	
3344	0	22855	
3345	0	22904	
3346	0	22886	
3347	0	22940	
3348	0	22935	
3349	0	22983	
3350	0	22938	
3351	0	22972	
3352	0	23048	
3353	0	23037	
3354	0	22933	
3355	0	22910	
3356	0	22898	
3357	0	22902	
3358	0	22908	
3359	0	22988	
3360	0	22876	
3361	0	22930	
3362	0	22911	
3363	0	22964	
3364	0	22908	
3365	0	22914	
3366	0	22893	
3367	0	22916	
3368	0	22801	
3369	0	22926	
3370	0	22862	
3371	0	23021	
3372	0	23072	
3373	0	23044	
3374	0	22924	
3375	0	22954	
3376	0	23040	
3377	0	23026	
3378	0	23100	
3379	0	23232	
3380	0	23141	
3381	0	23070	
3382	0	23375	
3383	0	23404	
3384	0	23520	
3385	0	23648	
3386	0	23692	
3387	0	23881	
3388	0	24073	
3389	0	24328	
3390	0	24514	
3391	0	24794	
3392	0	24994	
3393	0	25226	
3394	0	25534	
3395	0	25948	
3396	0	26215	
3397	0	26460	
3398	0	26880	
3399	0	27392	
3400	0	27704	
3401	0	28362	
3402	0	28618	
3403	0	29068	
3404	0	29576	
3405	0	30106	
3406	0	30637	
3407	0	31152	
3408	0	31557	
3409	0	32168	
3410	0	32641	
3411	0	33340	
3412	0	33808	
3413	0	34260	
3414	0	34740	
3415	0	35264	
3416	0	35728	
3417	0	36260	
3418	0	36837	
3419	0	37293	
3420	0	37692	
3421	0	38245	
3422	0	38720	
3423	0	39260	
3424	0	39682	
3425	0	40136	
3426	0	40545	
3427	0	40908	
3428	0	41276	
3429	0	41788	
3430	0	42176	
3431	0	42629	
3432	0	43001	
3433	0	43248	
3434	0	43594	
3435	0	44064	
3436	0	44368	
3437	0	44584	
3438	0	44930	
3439	0	45300	
3440	0	45592	
3441	0	45874	
3442	0	46156	
3443	0	46452	
3444	0	46825	
3445	0	46977	
3446	0	47216	
3447	0	47544	
3448	0	47712	
3449	0	47952	
3450	0	48266	
3451	0	48488	
3452	0	48744	
3453	0	48896	
3454	0	49079	
3455	0	49392	
3456	0	49632	
3457	0	49772	
3458	0	49924	
3459	0	50000	
3460	0	50288	
3461	0	50424	
3462	0	50500	
3463	0	50784	
3464	0	51028	
3465	0	51048	
3466	0	51156	
3467	0	51348	
3468	0	51520	
3469	0	51612	
3470	0	51720	
3471	0	51868	
3472	0	52032	
3473	0	52152	
3474	0	52276	
3475	0	52440	
3476	0	52552	
3477	0	52471	
3478	0	52608	
3479	0	52757	
3480	0	52909	
3481	0	52949	
3482	0	52956	
3483	0	53090	
3484	0	53184	
3485	0	53132	
3486	0	53176	
3487	0	53305	
3488	0	53424	
3489	0	53381	
3490	0	53360	
3491	0	53556	
3492	0	53572	
3493	0	53632	
3494	0	53524	
3495	0	53678	
3496	0	53652	
3497	0	53556	
3498	0	53576	
3499	0	53632	
3500	0	53612	
3501	0	53652	
3502	0	53575	
3503	0	53636	
3504	0	53668	
3505	0	53624	
3506	0	53610	
3507	0	53560	
3508	0	53576	
3509	0	53531	
3510	0	53416	
3511	0	53592	
3512	0	53564	
3513	0	53452	
3514	0	53444	
3515	0	53443	
3516	0	53428	
3517	0	53316	
3518	0	53232	
3519	0	53128	
3520	0	53232	
3521	0	53220	
3522	0	53068	
3523	0	53032	
3524	0	53003	
3525	0	52936	
3526	0	52808	
3527	0	52845	
3528	0	52828	
3529	0	52748	
3530	0	52740	
3531	0	52576	
3532	0	52576	
3533	0	52480	
3534	0	52300	
3535	0	52394	
3536	0	52336	
3537	0	52176	
3538	0	52124	
3539	0	51984	
3540	0	51893	
3541	0	51932	
3542	0	51928	
3543	0	51780	
3544	0	51740	
3545	0	51590	
3546	0	51552	
3547	0	51488	
3548	0	51408	
3549	0	51316	
3550	0	51272	
3551	0	51258	
3552	0	51265	
3553	0	51168	
3554	0	51076	
3555	0	50961	
3556	0	50912	
3557	0	50648	
3558	0	50650	
3559	0	50464	
3560	0	50532	
3561	0	50452	
3562	0	50368	
3563	0	50224	
3564	0	50240	
3565	0	50112	
3566	0	50135	
3567	0	49976	
3568	0	49872	
3569	0	49848	
3570	0	49832	
3571	0	49670	
3572	0	49716	
3573	0	49648	
3574	0	49364	
3575	0	49431	
3576	0	49268	
3577	0	49189	
3578	0	49240	
3579	0	49124	
3580	0	49072	
3581	0	49028	
3582	0	48932	
3583	0	48860	
3584	0	48897	
3585	0	48676	
3586	0	48578	
3587	0	48568	
3588	0	48464	
3589	0	48416	
3590	0	48404	
3591	0	48395	
3592	0	48356	
3593	0	48264	
3594	0	48106	
3595	0	48156	
3596	0	48052	
3597	0	47942	
3598	0	47952	
3599	0	47857	
3600	0	47769	
3601	0	47712	
3602	0	47604	
3603	0	47548	
3604	0	47628	
3605	0	47432	
3606	0	47388	
3607	0	47288	
3608	0	47216	
3609	0	47273	
3610	0	47224	
3611	0	46964	
3612	0	47072	
3613	0	47056	
3614	0	46976	
3615	0	47068	
3616	0	46836	
3617	0	46776	
3618	0	46768	
3619	0	46700	
3620	0	46568	
3621	0	46529	
3622	0	46453	
3623	0	46396	
3624	0	46409	
3625	0	46256	
3626	0	46160	
3627	0	46094	
3628	0	45980	
3629	0	45960	
3630	0	45933	
3631	0	45868	
3632	0	45909	
3633	0	45717	
3634	0	45654	
3635	0	45672	
3636	0	45440	
3637	0	45392	
3638	0	45380	
3639	0	45282	
3640	0	45184	
3641	0	45120	
3642	0	45113	
3643	0	45068	
3644	0	44999	
3645	0	44828	
3646	0	44750	
3647	0	44673	
3648	0	44568	
3649	0	44480	
3650	0	44540	
3651	0	44256	
3652	0	44368	
3653	0	44149	
3654	0	44144	
3655	0	44216	
3656	0	44081	
3657	0	43985	
3658	0	43904	
3659	0	43777	
3660	0	43756	
3661	0	43765	
3662	0	43576	
3663	0	43470	
3664	0	43496	
3665	0	43235	
3666	0	43142	
3667	0	43156	
3668	0	43095	
3669	0	42976	
3670	0	43040	
3671	0	42894	
3672	0	42965	
3673	0	42808	
3674	0	42697	
3675	0	42694	
3676	0	42528	
3677	0	42508	
3678	0	42404	
3679	0	42340	
3680	0	42386	
3681	0	42200	
3682	0	42096	
3683	0	42112	
3684	0	42080	
3685	0	41936	
3686	0	41928	
3687	0	41900	
3688	0	41824	
3689	0	41722	
3690	0	41648	
3691	0	41648	
3692	0	41616	
3693	0	41624	
3694	0	41472	
3695	0	41416	
3696	0	41496	
3697	0	41368	
3698	0	41352	
3699	0	41284	
3700	0	41280	
3701	0	41192	
3702	0	41086	
3703	0	41144	
3704	0	41120	
3705	0	41000	
3706	0	40904	
3707	0	40880	
3708	0	40824	
3709	0	40728	
3710	0	40725	
3711	0	40730	
3712	0	40696	
3713	0	40576	
3714	0	40692	
3715	0	40644	
3716	0	40535	
3717	0	40524	
3718	0	40440	
3719	0	40454	
3720	0	40476	
3721	0	40448	
3722	0	40188	
3723	0	40313	
3724	0	40288	
3725	0	40269	
3726	0	40240	
3727	0	40130	
3728	0	40044	
3729	0	40008	
3730	0	40005	
3731	0	40010	
3732	0	40152	
3733	0	40054	
3734	0	39976	
3735	0	39980	
3736	0	39888	
3737	0	39872	
3738	0	39898	
3739	0	39812	
3740	0	39856	
3741	0	39768	
3742	0	39688	
3743	0	39734	
3744	0	39862	
3745	0	39736	
3746	0	39696	
3747	0	39740	
3748	0	39736	
3749	0	39683	
3750	0	39480	
3751	0	39572	
3752	0	39680	
3753	0	39640	
3754	0	39488	
3755	0	39546	
3756	0	39612	
3757	0	39396	
3758	0	39384	
3759	0	39520	
3760	0	39432	
3761	0	39408	
3762	0	39312	
3763	0	39304	
3764	0	39357	
3765	0	39250	
3766	0	39326	
3767	0	39236	
3768	0	39236	
3769	0	39176	
3770	0	39160	
3771	0	39244	
3772	0	39184	
3773	0	39147	
3774	0	39084	
3775	0	39204	
3776	0	39100	
3777	0	38985	
3778	0	38944	
3779	0	38940	
3780	0	38912	
3781	0	39026	
3782	0	38885	
3783	0	38806	
3784	0	38872	
3785	0	38812	
3786	0	38802	
3787	0	38722	
3788	0	38720	
3789	0	38627	
3790	0	38664	
3791	0	38672	
3792	0	38570	
3793	0	38639	
3794	0	38568	
3795	0	38632	
3796	0	38609	
3797	0	38517	
3798	0	38452	
3799	0	38428	
3800	0	38438	
3801	0	38388	
3802	0	38273	
3803	0	38304	
3804	0	38256	
3805	0	38137	
3806	0	38220	
3807	0	38160	
3808	0	38128	
3809	0	38029	
3810	0	37932	
3811	0	38016	
3812	0	38016	
3813	0	37935	
3814	0	37828	
3815	0	37850	
3816	0	37760	
3817	0	37648	
3818	0	37668	
3819	0	37733	
3820	0	37693	
3821	0	37518	
3822	0	37600	
3823	0	37584	
3824	0	37516	
3825	0	37354	
3826	0	37401	
3827	0	37318	
3828	0	37296	
3829	0	37284	
3830	0	37304	
3831	0	37208	
3832	0	37112	
3833	0	37180	
3834	0	37100	
3835	0	37048	
3836	0	36949	
3837	0	36924	
3838	0	36920	
3839	0	36916	
3840	0	36880	
3841	0	36774	
3842	0	36776	
3843	0	36698	
3844	0	36672	
3845	0	36584	
3846	0	36532	
3847	0	36500	
3848	0	36453	
3849	0	36429	
3850	0	36322	
3851	0	36352	
3852	0	36324	
3853	0	36228	
3854	0	36064	
3855	0	36073	
3856	0	36073	
3857	0	35986	
3858	0	35912	
3859	0	35904	
3860	0	35812	
3861	0	35869	
3862	0	35748	
3863	0	35640	
3864	0	35610	
3865	0	35492	
3866	0	35517	
3867	0	35480	
3868	0	35328	
3869	0	35312	
3870	0	35322	
3871	0	35272	
3872	0	35322	
3873	0	35208	
3874	0	35153	
3875	0	35192	
3876	0	35084	
3877	0	34973	
3878	0	34888	
3879	0	34809	
3880	0	34748	
3881	0	34836	
3882	0	34700	
3883	0	34720	
3884	0	34642	
3885	0	34532	
3886	0	34456	
3887	0	34384	
3888	0	34412	
3889	0	34268	
3890	0	34356	
3891	0	34264	
3892	0	34276	
3893	0	34198	
3894	0	34048	
3895	0	34168	
3896	0	34154	
3897	0	33964	
3898	0	33902	
3899	0	33826	
3900	0	33909	
3901	0	33806	
3902	0	33644	
3903	0	33728	
3904	0	33701	
3905	0	33557	
3906	0	33540	
3907	0	33436	
3908	0	33405	
3909	0	33292	
3910	0	33274	
3911	0	33342	
3912	0	33304	
3913	0	33220	
3914	0	33136	
3915	0	33192	
3916	0	33060	
3917	0	33018	
3918	0	32971	
3919	0	32912	
3920	0	32868	
3921	0	32769	
3922	0	32656	
3923	0	32606	
3924	0	32657	
3925	0	32580	
3926	0	32618	
3927	0	32626	
3928	0	32446	
3929	0	32461	
3930	0	32368	
3931	0	32332	
3932	0	32356	
3933	0	32316	
3934	0	32160	
3935	0	32159	
3936	0	32145	
3937	0	32064	
3938	0	31992	
3939	0	32036	
3940	0	31968	
3941	0	31941	
3942	0	31840	
3943	0	31896	
3944	0	31820	
3945	0	31668	
3946	0	31596	
3947	0	31605	
3948	0	31703	
3949	0	31608	
3950	0	31544	
3951	0	31476	
3952	0	31488	
3953	0	31504	
3954	0	31463	
3955	0	31469	
3956	0	31365	
3957	0	31172	
3958	0	31072	
3959	0	31208	
3960	0	31264	
3961	0	31164	
3962	0	30984	
3963	0	30928	
3964	0	31040	
3965	0	30909	
3966	0	30832	
3967	0	30850	
3968	0	30841	
3969	0	30718	
3970	0	30720	
3971	0	30674	
3972	0	30672	
3973	0	30676	
3974	0	30448	
3975	0	30482	
3976	0	30464	
3977	0	30404	
3978	0	30428	
3979	0	30494	
3980	0	30392	
3981	0	30308	
3982	0	30316	
3983	0	30276	
3984	0	30262	
3985	0	30104	
3986	0	30046	
3987	0	30066	
3988	0	30084	
3989	0	30018	
3990	0	30080	
3991	0	29924	
3992	0	30016	
3993	0	29960	
3994	0	29940	
3995	0	29948	
3996	0	29868	
3997	0	29757	
3998	0	29841	
3999	0	29718	
4000	0	29734	
4001	0	29702	
4002	0	29636	
4003	0	29632	
4004	0	29633	
4005	0	29534	
4006	0	29421	
4007	0	29534	
4008	0	29344	
4009	0	29405	
4010	0	29340	
4011	0	29369	
4012	0	29399	
4013	0	29356	
4014	0	29264	
4015	0	29354	
4016	0	29256	
4017	0	29226	
4018	0	29150	
4019	0	29228	
4020	0	29077	
4021	0	29064	
4022	0	29120	
4023	0	29070	
4024	0	29076	
4025	0	28928	
4026	0	28880	
4027	0	28888	
4028	0	28986	
4029	0	28841	
4030	0	28936	
4031	0	28838	
4032	0	28772	
4033	0	28792	
4034	0	28750	
4035	0	28848	
4036	0	28674	
4037	0	28646	
4038	0	28708	
4039	0	28642	
4040	0	28616	
4041	0	28556	
4042	0	28480	
4043	0	28484	
4044	0	28488	
4045	0	28368	
4046	0	28368	
4047	0	28367	
4048	0	28328	
4049	0	28287	
4050	0	28282	
4051	0	28377	
4052	0	28269	
4053	0	28413	
4054	0	28191	
4055	0	28217	
4056	0	28210	
4057	0	28154	
4058	0	28212	
4059	0	28160	
4060	0	28194	
4061	0	28092	
4062	0	28122	
4063	0	28077	
4064	0	28138	
4065	0	28088	
4066	0	27968	
4067	0	28001	
4068	0	28046	
4069	0	27962	
4070	0	27994	
4071	0	28003	
4072	0	27932	
4073	0	27920	
4074	0	27872	
4075	0	27924	
4076	0	27864	
4077	0	27864	
4078	0	27800	
4079	0	27808	
4080	0	27761	
4081	0	27768	
4082	0	27746	
4083	0	27656	
4084	0	27716	
4085	0	27596	
4086	0	27597	
4087	0	27550	
4088	0	27616	
4089	0	27628	
4090	0	27596	
4091	0	27647	
4092	0	27628	
4093	0	27661	
4094	0	27520	
4095	0	27520	
4096	0	27513	
4097	0	27428	
4098	0	27424	
4099	0	27468	
4100	0	27374	
4101	0	27321	
4102	0	27372	
4103	0	27356	
4104	0	27398	
4105	0	27340	
4106	0	27300	
4107	0	27306	
4108	0	27217	
4109	0	27324	
4110	0	27264	
4111	0	27290	
4112	0	27384	
4113	0	27360	
4114	0	27288	
4115	0	27240	
4116	0	27332	
4117	0	27292	
4118	0	27210	
4119	0	27150	
4120	0	27142	
4121	0	27144	
4122	0	27132	
4123	0	27156	
4124	0	27112	
4125	0	26996	
4126	0	26948	
4127	0	26928	
4128	0	26909	
4129	0	26926	
4130	0	26936	
4131	0	26980	
4132	0	27066	
4133	0	27010	
4134	0	26972	
4135	0	26920	
4136	0	26860	
4137	0	26872	
4138	0	26822	
4139	0	26913	
4140	0	26850	
4141	0	26828	
4142	0	26830	
4143	0	26761	
4144	0	26825	
4145	0	26752	
4146	0	26704	
4147	0	26764	
4148	0	26794	
4149	0	26724	
4150	0	26736	
4151	0	26762	
4152	0	26768	
4153	0	26654	
4154	0	26704	
4155	0	26789	
4156	0	26706	
4157	0	26700	
4158	0	26684	
4159	0	26575	
4160	0	26680	
4161	0	26696	
4162	0	26584	
4163	0	26622	
4164	0	26556	
4165	0	26520	
4166	0	26484	
4167	0	26536	
4168	0	26489	
4169	0	26500	
4170	0	26448	
4171	0	26424	
4172	0	26484	
4173	0	26492	
4174	0	26423	
4175	0	26352	
4176	0	26400	
4177	0	26395	
4178	0	26337	
4179	0	26340	
4180	0	26455	
4181	0	26424	
4182	0	26272	
4183	0	26261	
4184	0	26316	
4185	0	26279	
4186	0	26216	
4187	0	26088	
4188	0	26260	
4189	0	26232	
4190	0	26128	
4191	0	26192	
4192	0	26196	
4193	0	26304	
4194	0	26184	
4195	0	26221	
4196	0	26250	
4197	0	26205	
4198	0	26181	
4199	0	26022	
4200	0	26096	
4201	0	26096	
4202	0	25997	
4203	0	26044	
4204	0	26048	
4205	0	26014	
4206	0	25988	
4207	0	25909	
4208	0	25952	
4209	0	25922	
4210	0	26020	
4211	0	25964	
4212	0	25920	
4213	0	25986	
4214	0	25969	
4215	0	26032	
4216	0	25996	
4217	0	25956	
4218	0	25877	
4219	0	25901	
4220	0	25804	
4221	0	25848	
4222	0	25895	
4223	0	25850	
4224	0	25798	
4225	0	25712	
4226	0	25682	
4227	0	25765	
4228	0	25716	
4229	0	25719	
4230	0	25784	
4231	0	25668	
4232	0	25704	
4233	0	25768	
4234	0	25728	
4235	0	25610	
4236	0	25620	
4237	0	25580	
4238	0	25596	
4239	0	25614	
4240	0	25649	
4241	0	25682	
4242	0	25608	
4243	0	25548	
4244	0	25618	
4245	0	25468	
4246	0	25540	
4247	0	25561	
4248	0	25500	
4249	0	25514	
4250	0	25490	
4251	0	25532	
4252	0	25454	
4253	0	25454	
4254	0	25504	
4255	0	25528	
4256	0	25489	
4257	0	25392	
4258	0	25528	
4259	0	25418	
4260	0	25500	
4261	0	25428	
4262	0	25460	
4263	0	25432	
4264	0	25325	
4265	0	25332	
4266	0	25260	
4267	0	25240	
4268	0	25264	
4269	0	25224	
4270	0	25262	
4271	0	25348	
4272	0	25314	
4273	0	25308	
4274	0	25256	
4275	0	25268	
4276	0	25232	
4277	0	25226	
4278	0	25260	
4279	0	25272	
4280	0	25153	
4281	0	25172	
4282	0	25210	
4283	0	25130	
4284	0	25192	
4285	0	25089	
4286	0	25018	
4287	0	25028	
4288	0	25091	
4289	0	25106	
4290	0	25108	
4291	0	25112	
4292	0	25072	
4293	0	25118	
4294	0	24994	
4295	0	24992	
4296	0	25021	
4297	0	24948	
4298	0	24962	
4299	0	25024	
4300	0	24900	
4301	0	24900	
4302	0	25056	
4303	0	25044	
4304	0	24960	
4305	0	24884	
4306	0	24875	
4307	0	24888	
4308	0	24892	
4309	0	24840	
4310	0	24920	
4311	0	24888	
4312	0	24796	
4313	0	24816	
4314	0	24680	
4315	0	24892	
4316	0	24862	
4317	0	24718	
4318	0	24892	
4319	0	24712	
4320	0	24865	
4321	0	24696	
4322	0	24732	
4323	0	24697	
4324	0	24698	
4325	0	24609	
4326	0	24676	
4327	0	24617	
4328	0	24617	
4329	0	24506	
4330	0	24694	
4331	0	24612	
4332	0	24634	
4333	0	24642	
4334	0	24680	
4335	0	24612	
4336	0	24608	
4337	0	24540	
4338	0	24560	
4339	0	24496	
4340	0	24552	
4341	0	24416	
4342	0	24386	
4343	0	24398	
4344	0	24448	
4345	0	24368	
4346	0	24348	
4347	0	24337	
4348	0	24318	
4349	0	24379	
4350	0	24368	
4351	0	24404	
4352	0	24428	
4353	0	24422	
4354	0	24380	
4355	0	24460	
4356	0	24452	
4357	0	24404	
4358	0	24336	
4359	0	24371	
4360	0	24276	
4361	0	24268	
4362	0	24246	
4363	0	24247	
4364	0	24264	
4365	0	24159	
4366	0	24180	
4367	0	24274	
4368	0	24200	
4369	0	24148	
4370	0	24164	
4371	0	24288	
4372	0	24272	
4373	0	24288	
4374	0	24221	
4375	0	24248	
4376	0	24196	
4377	0	24108	
4378	0	24116	
4379	0	24116	
4380	0	24161	
4381	0	24124	
4382	0	24098	
4383	0	24140	
4384	0	24078	
4385	0	24020	
4386	0	23944	
4387	0	24045	
4388	0	23990	
4389	0	24024	
4390	0	24119	
4391	0	24062	
4392	0	24012	
4393	0	24048	
4394	0	23921	
4395	0	23996	
4396	0	24036	
4397	0	24033	
4398	0	23912	
4399	0	23912	
4400	0	24143	
4401	0	23936	
4402	0	23946	
4403	0	23877	
4404	0	23980	
4405	0	23833	
4406	0	23772	
4407	0	23864	
4408	0	23900	
4409	0	23816	
4410	0	23882	
4411	0	23789	
4412	0	23836	
4413	0	23822	
4414	0	23848	
4415	0	23882	
4416	0	23888	
4417	0	23838	
4418	0	23834	
4419	0	23740	
4420	0	23834	
4421	0	23747	
4422	0	23770	
4423	0	23700	
4424	0	23740	
4425	0	23660	
4426	0	23596	
4427	0	23559	
4428	0	23656	
4429	0	23629	
4430	0	23645	
4431	0	23605	
4432	0	23613	
4433	0	23706	
4434	0	23676	
4435	0	23641	
4436	0	23636	
4437	0	23650	
4438	0	23580	
4439	0	23542	
4440	0	23598	
4441	0	23582	
4442	0	23498	
4443	0	23401	
4444	0	23472	
4445	0	23552	
4446	0	23453	
4447	0	23425	
4448	0	23476	
4449	0	23456	
4450	0	23393	
4451	0	23472	
4452	0	23508	
4453	0	23532	
4454	0	23336	
4455	0	23389	
4456	0	23321	
4457	0	23334	
4458	0	23296	
4459	0	23368	
4460	0	23413	
4461	0	23412	
4462	0	23441	
4463	0	23344	
4464	0	23418	
4465	0	23394	
4466	0	23320	
4467	0	23281	
4468	0	23354	
4469	0	23384	
4470	0	23356	
4471	0	23304	
4472	0	23410	
4473	0	23366	
4474	0	23326	
4475	0	23304	
4476	0	23380	
4477	0	23368	
4478	0	23313	
4479	0	23258	
4480	0	23348	
4481	0	23280	
4482	0	23224	
4483	0	23170	
4484	0	23248	
4485	0	23274	
4486	0	23186	
4487	0	23289	
4488	0	23238	
4489	0	23212	
4490	0	23137	
4491	0	23271	
4492	0	23316	
4493	0	23348	
4494	0	23122	
4495	0	23247	
4496	0	23256	
4497	0	23200	
4498	0	23232	
4499	0	23300	
4500	0	23244	
4501	0	23196	
4502	0	23173	
4503	0	23212	
4504	0	23272	
4505	0	23188	
4506	0	23210	
4507	0	23184	
4508	0	23180	
4509	0	23189	
4510	0	23216	
4511	0	23292	
4512	0	23258	
4513	0	23233	
4514	0	23152	
4515	0	23188	
4516	0	23234	
4517	0	23185	
4518	0	23240	
4519	0	23226	
4520	0	23286	
4521	0	23180	
4522	0	23166	
4523	0	23179	
4524	0	23252	
4525	0	23196	
4526	0	23112	
4527	0	23144	
4528	0	23226	
4529	0	23112	
4530	0	23140	
4531	0	23161	
4532	0	23192	
4533	0	23270	
4534	0	23253	
4535	0	23265	
4536	0	23295	
4537	0	23281	
4538	0	23248	
4539	0	23186	
4540	0	23225	
4541	0	23232	
4542	0	23128	
4543	0	23172	
4544	0	23284	
4545	0	23194	
4546	0	23072	
4547	0	23144	
4548	0	23160	
4549	0	23110	
4550	0	23141	
4551	0	23222	
4552	0	23284	
4553	0	23264	
4554	0	23166	
4555	0	23166	
4556	0	23177	
4557	0	23076	
4558	0	23030	
4559	0	23110	
4560	0	23124	
4561	0	23122	
4562	0	23070	
4563	0	23126	
4564	0	23149	
4565	0	23016	
4566	0	23070	
4567	0	23112	
4568	0	23093	
4569	0	23064	
4570	0	22997	
4571	0	23129	
4572	0	23061	
4573	0	23156	
4574	0	22993	
4575	0	23169	
4576	0	23196	
4577	0	23080	
4578	0	23106	
4579	0	23052	
4580	0	23136	
4581	0	23013	
4582	0	23069	
4583	0	23040	
4584	0	23089	
4585	0	23018	
4586	0	23002	
4587	0	23102	
4588	0	23078	
4589	0	23053	
4590	0	23158	
4591	0	23244	
4592	0	23248	
4593	0	23260	
4594	0	23182	
4595	0	23406	
4596	0	23493	
4597	0	23484	
4598	0	23578	
4599	0	23888	
4600	0	23888	
4601	0	24077	
4602	0	24213	
4603	0	24424	
4604	0	24745	
4605	0	24904	
4606	0	25156	
4607	0	25440	
4608	0	25759	
4609	0	25941	
4610	0	26388	
4611	0	26720	
4612	0	27176	
4613	0	27548	
4614	0	27758	
4615	0	28288	
4616	0	28784	
4617	0	29200	
4618	0	29572	
4619	0	30130	
4620	0	30681	
4621	0	30965	
4622	0	31412	
4623	0	31887	
4624	0	32534	
4625	0	32916	
4626	0	33360	
4627	0	33824	
4628	0	34392	
4629	0	34752	
4630	0	35364	
4631	0	35873	
4632	0	36328	
4633	0	36784	
4634	0	37156	
4635	0	37705	
4636	0	38184	
4637	0	38532	
4638	0	38876	
4639	0	39296	
4640	0	39753	
4641	0	40112	
4642	0	40469	
4643	0	40898	
4644	0	41332	
4645	0	41600	
4646	0	41864	
4647	0	42210	
4648	0	42656	
4649	0	42876	
4650	0	43166	
4651	0	43548	
4652	0	43892	
4653	0	44272	
4654	0	44450	
4655	0	44804	
4656	0	45036	
4657	0	45228	
4658	0	45428	
4659	0	45753	
4660	0	46104	
4661	0	46272	
4662	0	46352	
4663	0	46664	
4664	0	46908	
4665	0	47026	
4666	0	47176	
4667	0	47500	
4668	0	47568	
4669	0	47824	
4670	0	48036	
4671	0	48192	
4672	0	48476	
4673	0	48704	
4674	0	48664	
4675	0	48852	
4676	0	49058	
4677	0	49162	
4678	0	49188	
4679	0	49501	
4680	0	49601	
4681	0	49761	
4682	0	49928	
4683	0	49990	
4684	0	50141	
4685	0	50190	
4686	0	50268	
4687	0	50389	
4688	0	50624	
4689	0	50604	
4690	0	50704	
4691	0	50872	
4692	0	50876	
4693	0	51048	
4694	0	51092	
4695	0	51192	
4696	0	51280	
4697	0	51246	
4698	0	51232	
4699	0	51349	
4700	0	51520	
4701	0	51352	
4702	0	51482	
4703	0	51458	
4704	0	51592	
4705	0	51610	
4706	0	51554	
4707	0	51672	
4708	0	51656	
4709	0	51720	
4710	0	51748	
4711	0	51808	
4712	0	51824	
4713	0	51860	
4714	0	51816	
4715	0	51698	
4716	0	51820	
4717	0	51864	
4718	0	51748	
4719	0	51680	
4720	0	51763	
4721	0	51756	
4722	0	51740	
4723	0	51728	
4724	0	51666	
4725	0	51544	
4726	0	51536	
4727	0	51468	
4728	0	51488	
4729	0	51416	
4730	0	51440	
4731	0	51372	
4732	0	51296	
4733	0	51284	
4734	0	51172	
4735	0	51136	
4736	0	51188	
4737	0	51040	
4738	0	50896	
4739	0	51016	
4740	0	50968	
4741	0	50884	
4742	0	50888	
4743	0	50664	
4744	0	50701	
4745	0	50624	
4746	0	50456	
4747	0	50440	
4748	0	50401	
4749	0	50368	
4750	0	50332	
4751	0	50261	
4752	0	50232	
4753	0	50162	
4754	0	50000	
4755	0	49936	
4756	0	49948	
4757	0	49828	
4758	0	49690	
4759	0	49736	
4760	0	49584	
4761	0	49600	
4762	0	49468	
4763	0	49428	
4764	0	49296	
4765	0	49248	
4766	0	49140	
4767	0	49072	
4768	0	49056	
4769	0	48964	
4770	0	48896	
4771	0	48884	
4772	0	48724	
4773	0	48800	
4774	0	48600	
4775	0	48480	
4776	0	48476	
4777	0	48448	
4778	0	48368	
4779	0	48226	
4780	0	48072	
4781	0	48057	
4782	0	47918	
4783	0	47920	
4784	0	47924	
4785	0	47708	
4786	0	47669	
4787	0	47600	
4788	0	47532	
4789	0	47484	
4790	0	47542	
4791	0	47416	
4792	0	47300	
4793	0	47296	
4794	0	47104	
4795	0	47124	
4796	0	47076	
4797	0	46900	
4798	0	46800	
4799	0	46800	
4800	0	46688	
4801	0	46700	
4802	0	46644	
4803	0	46596	
4804	0	46476	
4805	0	46400	
4806	0	46292	
4807	0	46292	
4808	0	46304	
4809	0	46197	
4810	0	46141	
4811	0	46101	
4812	0	46069	
4813	0	45978	
4814	0	45920	
4815	0	45886	
4816	0	45796	
4817	0	45647	
4818	0	45576	
4819	0	45620	
4820	0	45553	
4821	0	45364	
4822	0	45389	
4823	0	45388	
4824	0	45360	
4825	0	45232	
4826	0	45136	
4827	0	45120	
4828	0	45068	
4829	0	44953	
4830	0	44944	
4831	0	44848	
4832	0	44867	
4833	0	44832	
4834	0	44756	
4835	0	44610	
4836	0	44612	
4837	0	44544	
4838	0	44472	
4839	0	44400	
4840	0	44373	
4841	0	44298	
4842	0	44236	
4843	0	44064	
4844	0	44084	
4845	0	44017	
4846	0	43884	
4847	0	43892	
4848	0	43864	
4849	0	43680	
4850	0	43625	
4851	0	43604	
4852	0	43552	
4853	0	43502	
4854	0	43408	
4855	0	43344	
4856	0	43266	
4857	0	43176	
4858	0	43072	
4859	0	43025	
4860	0	42912	
4861	0	42936	
4862	0	42808	
4863	0	42670	
4864	0	42714	
4865	0	42560	
4866	0	42396	
4867	0	42324	
4868	0	42260	
4869	0	42304	
4870	0	42216	
4871	0	42200	
4872	0	41988	
4873	0	42020	
4874	0	41916	
4875	0	41892	
4876	0	41840	
4877	0	41716	
4878	0	41580	
4879	0	41608	
4880	0	41548	
4881	0	41432	
4882	0	41378	
4883	0	41328	
4884	0	41216	
4885	0	41081	
4886	0	41129	
4887	0	41136	
4888	0	41001	
4889	0	40932	
4890	0	40954	
4891	0	40854	
4892	0	40824	
4893	0	40764	
4894	0	40832	
4895	0	40758	
4896	0	40676	
4897	0	40558	
4898	0	40360	
4899	0	40473	
4900	0	40292	
4901	0	40432	
4902	0	40300	
4903	0	40184	
4904	0	40248	
4905	0	40200	
4906	0	40036	
4907	0	40082	
4908	0	40112	
4909	0	39953	
4910	0	39948	
4911	0	39946	
4912	0	39888	
4913	0	39872	
4914	0	39804	
4915	0	39776	
4916	0	39755	
4917	0	39634	
4918	0	39608	
4919	0	39725	
4920	0	39596	
4921	0	39660	
4922	0	39556	
4923	0	39560	
4924	0	39572	
4925	0	39484	
4926	0	39328	
4927	0	39326	
4928	0	39376	
4929	0	39382	
4930	0	39320	
4931	0	39316	
4932	0	39301	
4933	0	39276	
4934	0	39258	
4935	0	39288	
4936	0	39296	
4937	0	39268	
4938	0	39188	
4939	0	39272	
4940	0	39066	
4941	0	39156	
4942	0	39224	
4943	0	39128	
4944	0	39084	
4945	0	39047	
4946	0	38880	
4947	0	38916	
4948	0	38945	
4949	0	38964	
4950	0	38940	
4951	0	38924	
4952	0	38920	
4953	0	39005	
4954	0	38815	
4955	0	38888	
4956	0	38910	
4957	0	38802	
4958	0	38718	
4959	0	38856	
4960	0	38789	
4961	0	38788	
4962	0	38864	
4963	0	38758	
4964	0	38806	
4965	0	38741	
4966	0	38644	
4967	0	38684	
4968	0	38692	
4969	0	38528	
4970	0	38592	
4971	0	38642	
4972	0	38594	
4973	0	38638	
4974	0	38560	
4975	0	38532	
4976	0	38549	
4977	0	38532	
4978	0	38524	
4979	0	38518	
4980	0	38428	
4981	0	38440	
4982	0	38388	
4983	0	38432	
4984	0	38436	
4985	0	38324	
4986	0	38224	
4987	0	38232	
4988	0	38264	
4989	0	38193	
4990	0	38192	
4991	0	38276	
4992	0	38172	
4993	0	38236	
4994	0	38192	
4995	0	38143	
4996	0	38216	
4997	0	38072	
4998	0	38048	
4999	0	38157	
5000	0	37929	
5001	0	38021	
5002	0	38025	
5003	0	37884	
5004	0	37920	
5005	0	37928	
5006	0	37764	
5007	0	37858	
5008	0	37752	
5009	0	37690	
5010	0	37866	
5011	0	37760	
5012	0	37734	
5013	0	37704	
5014	0	37704	
5015	0	37548	
5016	0	37569	
5017	0	37584	
5018	0	37536	
5019	0	37388	
5020	0	37332	
5021	0	37420	
5022	0	37162	
5023	0	37250	
5024	0	37258	
5025	0	37269	
5026	0	37148	
5027	0	37088	
5028	0	37034	
5029	0	37060	
5030	0	37106	
5031	0	36984	
5032	0	36960	
5033	0	36984	
5034	0	36924	
5035	0	36800	
5036	0	36928	
5037	0	36802	
5038	0	36698	
5039	0	36744	
5040	0	36512	
5041	0	36656	
5042	0	36589	
5043	0	36452	
5044	0	36400	
5045	0	36408	
5046	0	36263	
5047	0	36288	
5048	0	36296	
5049	0	36319	
5050	0	36284	
5051	0	36228	
5052	0	36186	
5053	0	36160	
5054	0	36122	
5055	0	35902	
5056	0	35912	
5057	0	35936	
5058	0	35768	
5059	0	35810	
5060	0	35708	
5061	0	35802	
5062	0	35658	
5063	0	35520	
5064	0	35537	
5065	0	35589	
5066	0	35468	
5067	0	35434	
5068	0	35430	
5069	0	35280	
5070	0	35301	
5071	0	35220	
5072	0	35220	
5073	0	35321	
5074	0	35257	
5075	0	35060	
5076	0	35036	
5077	0	35022	
5078	0	34932	
5079	0	34848	
5080	0	34760	
5081	0	34686	
5082	0	34722	
5083	0	34549	
5084	0	34656	
5085	0	34596	
5086	0	34441	
5087	0	34368	
5088	0	34368	
5089	0	34312	
5090	0	34428	
5091	0	34228	
5092	0	34248	
5093	0	34197	
5094	0	34088	
5095	0	34016	
5096	0	34041	
5097	0	34024	
5098	0	33894	
5099	0	33920	
5100	0	33752	
5101	0	33692	
5102	0	33844	
5103	0	33732	
5104	0	33632	
5105	0	33684	
5106	0	33492	
5107	0	33422	
5108	0	33460	
5109	0	33372	
5110	0	33344	
5111	0	33310	
5112	0	33398	
5113	0	33364	
5114	0	33216	
5115	0	33121	
5116	0	33140	
5117	0	33120	
5118	0	32986	
5119	0	32994	
5120	0	33024	
5121	0	32880	
5122	0	32826	
5123	0	32764	
5124	0	32744	
5125	0	32904	
5126	0	32606	
5127	0	32610	
5128	0	32552	
5129	0	32500	
5130	0	32460	
5131	0	32452	
5132	0	32520	
5133	0	32446	
5134	0	32368	
5135	0	32352	
5136	0	32348	
5137	0	32264	
5138	0	32084	
5139	0	32210	
5140	0	32062	
5141	0	32117	
5142	0	32080	
5143	0	31992	
5144	0	31964	
5145	0	32013	
5146	0	31824	
5147	0	31878	
5148	0	31802	
5149	0	31756	
5150	0	31712	
5151	0	31656	
5152	0	31716	
5153	0	31654	
5154	0	31519	
5155	0	31480	
5156	0	31524	
5157	0	31509	
5158	0	31348	
5159	0	31440	
5160	0	31266	
5161	0	31232	
5162	0	31178	
5163	0	31217	
5164	0	31276	
5165	0	31178	
5166	0	30984	
5167	0	30957	
5168	0	31081	
5169	0	30947	
5170	0	30925	
5171	0	30959	
5172	0	30956	
5173	0	30924	
5174	0	30810	
5175	0	30732	
5176	0	30832	
5177	0	30730	
5178	0	30652	
5179	0	30601	
5180	0	30574	
5181	0	30628	
5182	0	30562	
5183	0	30444	
5184	0	30492	
5185	0	30416	
5186	0	30277	
5187	0	30306	
5188	0	30356	
5189	0	30376	
5190	0	30215	
5191	0	30156	
5192	0	30140	
5193	0	30244	
5194	0	30236	
5195	0	30152	
5196	0	30120	
5197	0	30114	
5198	0	30077	
5199	0	30101	
5200	0	30076	
5201	0	30052	
5202	0	29920	
5203	0	29829	
5204	0	29884	
5205	0	29904	
5206	0	29772	
5207	0	29806	
5208	0	29708	
5209	0	29758	
5210	0	29626	
5211	0	29712	
5212	0	29664	
5213	0	29696	
5214	0	29505	
5215	0	29500	
5216	0	29561	
5217	0	29542	
5218	0	29440	
5219	0	29403	
5220	0	29392	
5221	0	29364	
5222	0	29364	
5223	0	29228	
5224	0	29272	
5225	0	29325	
5226	0	29104	
5227	0	29152	
5228	0	29225	
5229	0	29212	
5230	0	29146	
5231	0	29184	
5232	0	29101	
5233	0	29113	
5234	0	29049	
5235	0	28940	
5236	0	29056	
5237	0	28896	
5238	0	28912	
5239	0	28960	
5240	0	28752	
5241	0	28800	
5242	0	28728	
5243	0	28824	
5244	0	28768	
5245	0	28691	
5246	0	28594	
5247	0	28656	
5248	0	28686	
5249	0	28644	
5250	0	28648	
5251	0	28560	
5252	0	28656	
5253	0	28549	
5254	0	28586	
5255	0	28566	
5256	0	28593	
5257	0	28576	
5258	0	28444	
5259	0	28454	
5260	0	28365	
5261	0	28392	
5262	0	28316	
5263	0	28262	
5264	0	28256	
5265	0	28295	
5266	0	28244	
5267	0	28188	
5268	0	28172	
5269	0	28143	
5270	0	28160	
5271	0	28236	
5272	0	28244	
5273	0	28244	
5274	0	28200	
5275	0	28102	
5276	0	28128	
5277	0	28104	
5278	0	28087	
5279	0	28020	
5280	0	27906	
5281	0	28023	
5282	0	27898	
5283	0	27876	
5284	0	27967	
5285	0	27920	
5286	0	27893	
5287	0	27812	
5288	0	27924	
5289	0	27808	
5290	0	27836	
5291	0	27760	
5292	0	27813	
5293	0	27804	
5294	0	27670	
5295	0	27708	
5296	0	27840	
5297	0	27798	
5298	0	27624	
5299	0	27808	
5300	0	27704	
5301	0	27677	
5302	0	27670	
5303	0	27602	
5304	0	27625	
5305	0	27584	
5306	0	27524	
5307	0	27564	
5308	0	27620	
5309	0	27536	
5310	0	27537	
5311	0	27474	
5312	0	27584	
5313	0	27519	
5314	0	27424	
5315	0	27431	
5316	0	27490	
5317	0	27380	
5318	0	27388	
5319	0	27412	
5320	0	27324	
5321	0	27340	
5322	0	27340	
5323	0	27205	
5324	0	27296	
5325	0	27368	
5326	0	27189	
5327	0	27296	
5328	0	27224	
5329	0	27232	
5330	0	27175	
5331	0	27224	
5332	0	27236	
5333	0	27156	
5334	0	27163	
5335	0	27044	
5336	0	27158	
5337	0	27178	
5338	0	27140	
5339	0	27048	
5340	0	27079	
5341	0	27008	
5342	0	27027	
5343	0	26980	
5344	0	27066	
5345	0	26978	
5346	0	26936	
5347	0	26976	
5348	0	26954	
5349	0	27037	
5350	0	27003	
5351	0	26880	
5352	0	26966	
5353	0	26948	
5354	0	26918	
5355	0	26812	
5356	0	26948	
5357	0	26834	
5358	0	26800	
5359	0	26760	
5360	0	26788	
5361	0	26844	
5362	0	26848	
5363	0	26760	
5364	0	26760	
5365	0	26780	
5366	0	26712	
5367	0	26650	
5368	0	26701	
5369	0	26660	
5370	0	26637	
5371	0	26640	
5372	0	26821	
5373	0	26781	
5374	0	26698	
5375	0	26634	
5376	0	26656	
5377	0	26664	
5378	0	26702	
5379	0	26592	
5380	0	26722	
5381	0	26562	
5382	0	26465	
5383	0	26557	
5384	0	26528	
5385	0	26520	
5386	0	26452	
5387	0	26392	
5388	0	26368	
5389	0	26436	
5390	0	26484	
5391	0	26528	
5392	0	26516	
5393	0	26538	
5394	0	26482	
5395	0	26378	
5396	0	26497	
5397	0	26450	
5398	0	26420	
5399	0	26266	
5400	0	26334	
5401	0	26304	
5402	0	26260	
5403	0	26273	
5404	0	26240	
5405	0	26240	
5406	0	26165	
5407	0	26184	
5408	0	26256	
5409	0	26249	
5410	0	26184	
5411	0	26221	
5412	0	26152	
5413	0	26225	
5414	0	26124	
5415	0	26068	
5416	0	26144	
5417	0	26133	
5418	0	26050	
5419	0	26044	
5420	0	26039	
5421	0	26112	
5422	0	26088	
5423	0	25976	
5424	0	25999	
5425	0	26025	
5426	0	26042	
5427	0	26012	
5428	0	25924	
5429	0	25908	
5430	0	25920	
5431	0	25872	
5432	0	25908	
5433	0	26080	
5434	0	26054	
5435	0	25900	
5436	0	26024	
5437	0	26017	
5438	0	25933	
5439	0	25872	
5440	0	25904	
5441	0	25832	
5442	0	25828	
5443	0	25756	
5444	0	25706	
5445	0	25758	
5446	0	25662	
5447	0	25685	
5448	0	25720	
5449	0	25692	
5450	0	25774	
5451	0	25733	
5452	0	25724	
5453	0	25664	
5454	0	25680	
5455	0	25736	
5456	0	25792	
5457	0	25749	
5458	0	25672	
5459	0	25529	
5460	0	25532	
5461	0	25480	
5462	0	25581	
5463	0	25588	
5464	0	25521	
5465	0	25506	
5466	0	25413	
5467	0	25460	
5468	0	25508	
5469	0	25458	
5470	0	25476	
5471	0	25450	
5472	0	25440	
5473	0	25433	
5474	0	25504	
5475	0	25410	
5476	0	25458	
5477	0	25420	
5478	0	25356	
5479	0	25243	
5480	0	25360	
5481	0	25264	
5482	0	25252	
5483	0	25168	
5484	0	25228	
5485	0	25312	
5486	0	25152	
5487	0	25228	
5488	0	25206	
5489	0	25306	
5490	0	25312	
5491	0	25240	
5492	0	25184	
5493	0	25290	
5494	0	25212	
5495	0	25108	
5496	0	25124	
5497	0	25028	
5498	0	25078	
5499	0	25045	
5500	0	25000	
5501	0	25093	
5502	0	25166	
5503	0	25088	
5504	0	25034	
5505	0	25037	
5506	0	24960	
5507	0	25040	
5508	0	25036	
5509	0	24970	
5510	0	24956	
5511	0	25045	
5512	0	24999	
5513	0	25012	
5514	0	24916	
5515	0	24872	
5516	0	24853	
5517	0	24874	
5518	0	24824	
5519	0	24968	
5520	0	24929	
5521	0	24825	
5522	0	24894	
5523	0	24852	
5524	0	24884	
5525	0	24940	
5526	0	24763	
5527	0	24813	
5528	0	24818	
5529	0	24808	
5530	0	24748	
5531	0	24757	
5532	0	24801	
5533	0	24825	
5534	0	24652	
5535	0	24579	
5536	0	24678	
5537	0	24724	
5538	0	24576	
5539	0	24680	
5540	0	24565	
5541	0	24512	
5542	0	24534	
5543	0	24559	
5544	0	24545	
5545	0	24560	
5546	0	24490	
5547	0	24431	
5548	0	24539	
5549	0	24532	
5550	0	24485	
5551	0	24464	
5552	0	24342	
5553	0	24440	
5554	0	24468	
5555	0	24407	
5556	0	24480	
5557	0	24448	
5558	0	24385	
5559	0	24377	
5560	0	24308	
5561	0	24400	
5562	0	24293	
5563	0	24290	
5564	0	24288	
5565	0	24316	
5566	0	24252	
5567	0	24229	
5568	0	24173	
5569	0	24224	
5570	0	24221	
5571	0	24320	
5572	0	24220	
5573	0	24344	
5574	0	24273	
5575	0	24241	
5576	0	24258	
5577	0	24196	
5578	0	24088	
5579	0	24177	
5580	0	24120	
5581	0	24216	
5582	0	24140	
5583	0	24118	
5584	0	24096	
5585	0	24046	
5586	0	24004	
5587	0	24072	
5588	0	24102	
5589	0	24092	
5590	0	23944	
5591	0	23948	
5592	0	24032	
5593	0	24117	
5594	0	24104	
5595	0	23988	
5596	0	24069	
5597	0	24065	
5598	0	24020	
5599	0	23996	
5600	0	23982	
5601	0	24030	
5602	0	24020	
5603	0	23988	
5604	0	24028	
5605	0	23977	
5606	0	23957	
5607	0	23854	
5608	0	23845	
5609	0	23892	
5610	0	23916	
5611	0	23937	
5612	0	23889	
5613	0	23922	
5614	0	23940	
5615	0	23866	
5616	0	23878	
5617	0	23776	
5618	0	23746	
5619	0	23817	
5620	0	23784	
5621	0	23876	
5622	0	23810	
5623	0	23770	
5624	0	23849	
5625	0	23854	
5626	0	23770	
5627	0	23754	
5628	0	23833	
5629	0	23776	
5630	0	23672	
5631	0	23781	
5632	0	23750	
5633	0	23824	
5634	0	23756	
5635	0	23677	
5636	0	23785	
5637	0	23760	
5638	0	23724	
5639	0	23628	
5640	0	23702	
5641	0	23802	
5642	0	23736	
5643	0	23732	
5644	0	23685	
5645	0	23780	
5646	0	23684	
5647	0	23628	
5648	0	23648	
5649	0	23670	
5650	0	23578	
5651	0	23638	
5652	0	23682	
5653	0	23748	
5654	0	23660	
5655	0	23649	
5656	0	23636	
5657	0	23672	
5658	0	23620	
5659	0	23697	
5660	0	23684	
5661	0	23608	
5662	0	23632	
5663	0	23640	
5664	0	23612	
5665	0	23730	
5666	0	23628	
5667	0	23464	
5668	0	23548	
5669	0	23590	
5670	0	23620	
5671	0	23517	
5672	0	23559	
5673	0	23518	
5674	0	23541	
5675	0	23592	
5676	0	23572	
5677	0	23594	
5678	0	23466	
5679	0	23444	
5680	0	23412	
5681	0	23513	
5682	0	23493	
5683	0	23516	
5684	0	23440	
5685	0	23418	
5686	0	23302	
5687	0	23384	
5688	0	23432	
5689	0	23381	
5690	0	23356	
5691	0	23454	
5692	0	23406	
5693	0	23447	
5694	0	23328	
5695	0	23360	
5696	0	23396	
5697	0	23385	
5698	0	23280	
5699	0	23340	
5700	0	23268	
5701	0	23296	
5702	0	23308	
5703	0	23302	
5704	0	23185	
5705	0	23201	
5706	0	23112	
5707	0	23168	
5708	0	23237	
5709	0	23086	
5710	0	23151	
5711	0	23228	
5712	0	23304	
5713	0	23208	
5714	0	23296	
5715	0	23274	
5716	0	23272	
5717	0	23285	
5718	0	23277	
5719	0	23244	
5720	0	23284	
5721	0	23408	
5722	0	23232	
5723	0	23439	
5724	0	23573	
5725	0	23650	
5726	0	23573	
5727	0	23678	
5728	0	23929	
5729	0	23968	
5730	0	24164	
5731	0	24406	
5732	0	24670	
5733	0	24928	
5734	0	25120	
5735	0	25314	
5736	0	25604	
5737	0	25897	
5738	0	26040	
5739	0	26533	
5740	0	26899	
5741	0	27224	
5742	0	27488	
5743	0	28048	
5744	0	28452	
5745	0	28868	
5746	0	29216	
5747	0	29594	
5748	0	30074	
5749	0	30496	
5750	0	31077	
5751	0	31560	
5752	0	32052	
5753	0	32566	
5754	0	32951	
5755	0	33429	
5756	0	33878	
5757	0	34329	
5758	0	34704	
5759	0	35160	
5760	0	35692	
5761	0	36252	
5762	0	36576	
5763	0	36889	
5764	0	37389	
5765	0	37856	
5766	0	38114	
5767	0	38524	
5768	0	39040	
5769	0	39275	
5770	0	39700	
5771	0	40180	
5772	0	40526	
5773	0	40898	
5774	0	41192	
5775	0	41436	
5776	0	41828	
5777	0	42220	
5778	0	42496	
5779	0	42654	
5780	0	43008	
5781	0	43266	
5782	0	43604	
5783	0	43852	
5784	0	44076	
5785	0	44336	
5786	0	44485	
5787	0	44740	
5788	0	44976	
5789	0	45312	
5790	0	45524	
5791	0	45692	
5792	0	45964	
5793	0	46144	
5794	0	46432	
5795	0	46592	
5796	0	46756	
5797	0	46792	
5798	0	46976	
5799	0	47232	
5800	0	47459	
5801	0	47624	
5802	0	47696	
5803	0	47756	
5804	0	47968	
5805	0	48084	
5806	0	48148	
5807	0	48360	
5808	0	48553	
5809	0	48544	
5810	0	48644	
5811	0	48769	
5812	0	49032	
5813	0	49112	
5814	0	49176	
5815	0	49156	
5816	0	49357	
5817	0	49448	
5818	0	49426	
5819	0	49616	
5820	0	49592	
5821	0	49840	
5822	0	49824	
5823	0	49792	
5824	0	49992	
5825	0	50016	
5826	0	49896	
5827	0	49964	
5828	0	50068	
5829	0	49996	
5830	0	50096	
5831	0	50080	
5832	0	50268	
5833	0	50255	
5834	0	50256	
5835	0	50244	
5836	0	50340	
5837	0	50284	
5838	0	50212	
5839	0	50238	
5840	0	50316	
5841	0	50354	
5842	0	50176	
5843	0	50200	
5844	0	50172	
5845	0	50200	
5846	0	50128	
5847	0	50120	
5848	0	50071	
5849	0	50100	
5850	0	50076	
5851	0	50044	
5852	0	50022	
5853	0	50026	
5854	0	49956	
5855	0	49792	
5856	0	49836	
5857	0	49756	
5858	0	49696	
5859	0	49676	
5860	0	49580	
5861	0	49520	
5862	0	49492	
5863	0	49444	
5864	0	49296	
5865	0	49356	
5866	0	49236	
5867	0	49160	
5868	0	49052	
5869	0	49088	
5870	0	49048	
5871	0	48944	
5872	0	48905	
5873	0	48756	
5874	0	48832	
5875	0	48762	
5876	0	48740	
5877	0	48596	
5878	0	48500	
5879	0	48359	
5880	0	48406	
5881	0	48302	
5882	0	48192	
5883	0	48052	
5884	0	48048	
5885	0	47912	
5886	0	47834	
5887	0	47752	
5888	0	47808	
5889	0	47693	
5890	0	47512	
5891	0	47500	
5892	0	47518	
5893	0	47476	
5894	0	47397	
5895	0	47162	
5896	0	47196	
5897	0	47140	
5898	0	47032	
5899	0	46908	
5900	0	46800	
5901	0	46779	
5902	0	46680	
5903	0	46560	
5904	0	46496	
5905	0	46512	
5906	0	46186	
5907	0	46108	
5908	0	46144	
5909	0	46077	
5910	0	45948	
5911	0	45992	
5912	0	45962	
5913	0	45844	
5914	0	45832	
5915	0	45676	
5916	0	45666	
5917	0	45616	
5918	0	45500	
5919	0	45284	
5920	0	45388	
5921	0	45220	
5922	0	45096	
5923	0	45024	
5924	0	45020	
5925	0	44900	
5926	0	44692	
5927	0	44624	
5928	0	44735	
5929	0	44685	
5930	0	44548	
5931	0	44520	
5932	0	44508	
5933	0	44456	
5934	0	44381	
5935	0	44305	
5936	0	44328	
5937	0	44212	
5938	0	43988	
5939	0	43898	
5940	0	43956	
5941	0	43900	
5942	0	43772	
5943	0	43702	
5944	0	43616	
5945	0	43568	
5946	0	43448	
5947	0	43381	
5948	0	43458	
5949	0	43372	
5950	0	43208	
5951	0	43260	
5952	0	43253	
5953	0	43168	
5954	0	43140	
5955	0	43012	
5956	0	43028	
5957	0	43020	
5958	0	42816	
5959	0	42640	
5960	0	42757	
5961	0	42660	
5962	0	42540	
5963	0	42447	
5964	0	42400	
5965	0	42376	
5966	0	42256	
5967	0	42112	
5968	0	42177	
5969	0	42066	
5970	0	41908	
5971	0	41953	
5972	0	41912	
5973	0	41872	
5974	0	41781	
5975	0	41648	
5976	0	41564	
5977	0	41489	
5978	0	41482	
5979	0	41456	
5980	0	41345	
5981	0	41294	
5982	0	41192	
5983	0	41029	
5984	0	41044	
5985	0	40940	
5986	0	40866	
5987	0	40832	
5988	0	40630	
5989	0	40576	
5990	0	40592	
5991	0	40546	
5992	0	40568	
5993	0	40469	
5994	0	40448	
5995	0	40268	
5996	0	40194	
5997	0	40112	
5998	0	40156	
5999	0	40168	
6000	0	40071	
6001	0	39916	
6002	0	39936	
6003	0	39750	
6004	0	39723	
6005	0	39744	
6006	0	39560	
6007	0	39458	
6008	0	39497	
6009	0	39352	
6010	0	39412	
6011	0	39420	
6012	0	39292	
6013	0	39316	
6014	0	39220	
6015	0	39204	
6016	0	39113	
6017	0	39024	
6018	0	38964	
6019	0	39004	
6020	0	38844	
6021	0	38894	
6022	0	38860	
6023	0	38812	
6024	0	38648	
6025	0	38632	
6026	0	38684	
6027	0	38669	
6028	0	38588	
6029	0	38530	
6030	0	38572	
6031	0	38500	
6032	0	38500	
6033	0	38513	
6034	0	38516	
6035	0	38268	
6036	0	38316	
6037	0	38305	
6038	0	38308	
6039	0	38218	
6040	0	38240	
6041	0	38288	
6042	0	38144	
6043	0	38104	
6044	0	38176	
6045	0	38210	
6046	0	38107	
6047	0	38144	
6048	0	38129	
6049	0	38080	
6050	0	38112	
6051	0	38072	
6052	0	38144	
6053	0	37969	
6054	0	37920	
6055	0	37922	
6056	0	37976	
6057	0	37952	
6058	0	37838	
6059	0	37872	
6060	0	38056	
6061	0	37844	
6062	0	37924	
6063	0	37840	
6064	0	37820	
6065	0	37800	
6066	0	37736	
6067	0	37692	
6068	0	37848	
6069	0	37812	
6070	0	37733	
6071	0	37794	
6072	0	37680	
6073	0	37820	
6074	0	37804	
6075	0	37728	
6076	0	37780	
6077	0	37736	
6078	0	37580	
6079	0	37600	
6080	0	37700	
6081	0	37736	
6082	0	37708	
6083	0	37572	
6084	0	37558	
6085	0	37545	
6086	0	37540	
6087	0	37528	
6088	0	37644	
6089	0	37540	
6090	0	37580	
6091	0	37568	
6092	0	37512	
6093	0	37544	
6094	0	37616	
6095	0	37440	
6096	0	37397	
6097	0	37464	
6098	0	37440	
6099	0	37468	
6100	0	37384	
6101	0	37400	
6102	0	37496	
6103	0	37440	
6104	0	37292	
6105	0	37360	
6106	0	37304	
6107	0	37342	
6108	0	37308	
6109	0	37184	
6110	0	37224	
6111	0	37244	
6112	0	37220	
6113	0	37288	
6114	0	37288	
6115	0	37180	
6116	0	37105	
6117	0	37133	
6118	0	37024	
6119	0	37180	
6120	0	37164	
6121	0	36988	
6122	0	37004	
6123	0	37028	
6124	0	37077	
6125	0	37008	
6126	0	36954	
6127	0	36900	
6128	0	36844	
6129	0	36871	
6130	0	36848	
6131	0	36832	
6132	0	36812	
6133	0	36832	
6134	0	36768	
6135	0	36753	
6136	0	36688	
6137	0	36696	
6138	0	36552	
6139	0	36664	
6140	0	36606	
6141	0	36648	
6142	0	36410	
6143	0	36352	
6144	0	36420	
6145	0	36469	
6146	0	36428	
6147	0	36276	
6148	0	36328	
6149	0	36242	
6150	0	36320	
6151	0	36268	
6152	0	36216	
6153	0	36244	
6154	0	36092	
6155	0	36042	
6156	0	36076	
6157	0	36122	
6158	0	36064	
6159	0	35928	
6160	0	35893	
6161	0	35914	
6162	0	35816	
6163	0	35812	
6164	0	35732	
6165	0	35725	
6166	0	35628	
6167	0	35662	
6168	0	35616	
6169	0	35454	
6170	0	35513	
6171	0	35488	
6172	0	35533	
6173	0	35480	
6174	0	35388	
6175	0	35256	
6176	0	35318	
6177	0	35264	
6178	0	35100	
6179	0	35202	
6180	0	35188	
6181	0	35060	
6182	0	34970	
6183	0	34992	
6184	0	34976	
6185	0	35012	
6186	0	34854	
6187	0	34786	
6188	0	34720	
6189	0	34712	
6190	0	34683	
6191	0	34584	
6192	0	34650	
6193	0	34620	
6194	0	34504	
6195	0	34394	
6196	0	34436	
6197	0	34544	
6198	0	34449	
6199	0	34376	
6200	0	34296	
6201	0	34248	
6202	0	34168	
6203	0	34108	
6204	0	34176	
6205	0	34089	
6206	0	33946	
6207	0	33820	
6208	0	33920	
6209	0	33860	
6210	0	33740	
6211	0	33761	
6212	0	33737	
6213	0	33768	
6214	0	33612	
6215	0	33580	
6216	0	33582	
6217	0	33588	
6218	0	33504	
6219	0	33368	
6220	0	33352	
6221	0	33442	
6222	0	33280	
6223	0	33176	
6224	0	33164	
6225	0	33193	
6226	0	33020	
6227	0	33002	
6228	0	32921	
6229	0	32964	
6230	0	32981	
6231	0	32824	
6232	0	32808	
6233	0	32796	
6234	0	32824	
6235	0	32704	
6236	0	32612	
6237	0	32700	
6238	0	32648	
6239	0	32564	
6240	0	32624	
6241	0	32566	
6242	0	32545	
6243	0	32350	
6244	0	32296	
6245	0	32332	
6246	0	32190	
6247	0	32099	
6248	0	32153	
6249	0	32082	
6250	0	32128	
6251	0	32069	
6252	0	32124	
6253	0	32051	
6254	0	31996	
6255	0	31989	
6256	0	31926	
6257	0	31924	
6258	0	31704	
6259	0	31892	
6260	0	31785	
6261	0	31648	
6262	0	31644	
6263	0	31552	
6264	0	31464	
6265	0	31552	
6266	0	31452	
6267	0	31418	
6268	0	31324	
6269	0	31351	
6270	0	31454	
6271	0	31340	
6272	0	31333	
6273	0	31210	
6274	0	31160	
6275	0	31118	
6276	0	31227	
6277	0	31222	
6278	0	31078	
6279	0	31030	
6280	0	30944	
6281	0	30873	
6282	0	30820	
6283	0	30836	
6284	0	30793	
6285	0	30784	
6286	0	30760	
6287	0	30664	
6288	0	30664	
6289	0	30660	
6290	0	30564	
6291	0	30664	
6292	0	30583	
6293	0	30566	
6294	0	30506	
6295	0	30321	
6296	0	30428	
6297	0	30434	
6298	0	30292	
6299	0	30168	
6300	0	30112	
6301	0	30296	
6302	0	30180	
6303	0	30042	
6304	0	30034	
6305	0	30080	
6306	0	30018	
6307	0	29909	
6308	0	29953	
6309	0	29893	
6310	0	29886	
6311	0	29894	
6312	0	29852	
6313	0	29888	
6314	0	29836	
6315	0	29729	
6316	0	29677	
6317	0	29700	
6318	0	29600	
6319	0	29638	
6320	0	29590	
6321	0	29548	
6322	0	29462	
6323	0	29418	
6324	0	29380	
6325	0	29432	
6326	0	29450	
6327	0	29312	
6328	0	29242	
6329	0	29277	
6330	0	29206	
6331	0	29224	
6332	0	29206	
6333	0	29206	
6334	0	29328	
6335	0	29190	
6336	0	29164	
6337	0	29144	
6338	0	29050	
6339	0	29129	
6340	0	29080	
6341	0	28886	
6342	0	28897	
6343	0	28986	
6344	0	28892	
6345	0	28868	
6346	0	28848	
6347	0	28716	
6348	0	28692	
6349	0	28736	
6350	0	28785	
6351	0	28681	
6352	0	28680	
6353	0	28662	
6354	0	28582	
6355	0	28694	
6356	0	28709	
6357	0	28716	
6358	0	28556	
6359	0	28544	
6360	0	28600	
6361	0	28490	
6362	0	28328	
6363	0	28449	
6364	0	28424	
6365	0	28392	
6366	0	28352	
6367	0	28270	
6368	0	28384	
6369	0	28274	
6370	0	28252	
6371	0	28288	
6372	0	28128	
6373	0	28280	
6374	0	28176	
6375	0	28174	
6376	0	28280	
6377	0	28220	
6378	0	28140	
6379	0	28024	
6380	0	28038	
6381	0	28040	
6382	0	28112	
6383	0	28052	
6384	0	27948	
6385	0	27952	
6386	0	27948	
6387	0	27940	
6388	0	27984	
6389	0	27949	
6390	0	27870	
6391	0	27820	
6392	0	27804	
6393	0	27908	
6394	0	27914	
6395	0	27788	
6396	0	27820	
6397	0	27836	
6398	0	27820	
6399	0	27733	
6400	0	27752	
6401	0	27718	
6402	0	27680	
6403	0	27668	
6404	0	27547	
6405	0	27588	
6406	0	27513	
6407	0	27464	
6408	0	27528	
6409	0	27489	
6410	0	27456	
6411	0	27508	
6412	0	27597	
6413	0	27626	
6414	0	27572	
6415	0	27446	
6416	0	27432	
6417	0	27412	
6418	0	27464	
6419	0	27446	
6420	0	27370	
6421	0	27268	
6422	0	27320	
6423	0	27324	
6424	0	27387	
6425	0	27396	
6426	0	27370	
6427	0	27232	
6428	0	27399	
6429	0	27322	
6430	0	27244	
6431	0	27420	
6432	0	27278	
6433	0	27266	
6434	0	27349	
6435	0	27260	
6436	0	27292	
6437	0	27265	
6438	0	27258	
6439	0	27278	
6440	0	27136	
6441	0	27158	
6442	0	27238	
6443	0	27165	
6444	0	27172	
6445	0	27200	
6446	0	27084	
6447	0	26992	
6448	0	27164	
6449	0	27092	
6450	0	27016	
6451	0	27028	
6452	0	27018	
6453	0	27084	
6454	0	27138	
6455	0	27084	
6456	0	26989	
6457	0	27093	
6458	0	27000	
6459	0	26978	
6460	0	26956	
6461	0	27000	
6462	0	26908	
6463	0	26908	
6464	0	26934	
6465	0	26924	
6466	0	26892	
6467	0	26848	
6468	0	26938	
6469	0	26884	
6470	0	26826	
6471	0	26860	
6472	0	26908	
6473	0	26952	
6474	0	26904	
6475	0	26892	
6476	0	26898	
6477	0	26820	
6478	0	26884	
6479	0	26768	
6480	0	26725	
6481	0	26766	
6482	0	26818	
6483	0	26679	
6484	0	26612	
6485	0	26702	
6486	0	26715	
6487	0	26688	
6488	0	26717	
6489	0	26710	
6490	0	26644	
6491	0	26668	
6492	0	26753	
6493	0	26729	
6494	0	26712	
6495	0	26740	
6496	0	26690	
6497	0	26592	
6498	0	26572	
6499	0	26624	
6500	0	26652	
6501	0	26575	
6502	0	26485	
6503	0	26484	
6504	0	26552	
6505	0	26612	
6506	0	26610	
6507	0	26456	
6508	0	26529	
6509	0	26485	
6510	0	26548	
6511	0	26565	
6512	0	26629	
6513	0	26592	
6514	0	26546	
6515	0	26413	
6516	0	26420	
6517	0	26538	
6518	0	26460	
6519	0	26452	
6520	0	26468	
6521	0	26476	
6522	0	26346	
6523	0	26416	
6524	0	26396	
6525	0	26526	
6526	0	26416	
6527	0	26383	
6528	0	26411	
6529	0	26368	
6530	0	26414	
6531	0	26353	
6532	0	26421	
6533	0	26616	
6534	0	26458	
6535	0	26325	
6536	0	26298	
6537	0	26520	
6538	0	26470	
6539	0	26391	
6540	0	26314	
6541	0	26426	
6542	0	26337	
6543	0	26336	
6544	0	26348	
6545	0	26480	
6546	0	26284	
6547	0	26245	
6548	0	26325	
6549	0	26406	
6550	0	26440	
6551	0	26423	
6552	0	26412	
6553	0	26368	
6554	0	26446	
6555	0	26332	
6556	0	26312	
6557	0	26341	
6558	0	26368	
6559	0	26286	
6560	0	26154	
6561	0	26296	
6562	0	26353	
6563	0	26356	
6564	0	26272	
6565	0	26313	
6566	0	26258	
6567	0	26172	
6568	0	26164	
6569	0	26252	
6570	0	26260	
6571	0	26244	
6572	0	26296	
6573	0	26289	
6574	0	26309	
6575	0	26272	
6576	0	26324	
6577	0	26241	
6578	0	26277	
6579	0	26240	
6580	0	26160	
6581	0	26241	
6582	0	26194	
6583	0	26256	
6584	0	26208	
6585	0	26240	
6586	0	26077	
6587	0	26056	
6588	0	26254	
6589	0	26236	
6590	0	26158	
6591	0	26220	
6592	0	26304	
6593	0	26286	
6594	0	26116	
6595	0	26169	
6596	0	26153	
6597	0	26224	
6598	0	26116	
6599	0	26008	
6600	0	26104	
6601	0	26116	
6602	0	26016	
6603	0	26063	
6604	0	26072	
6605	0	26044	
6606	0	26042	
6607	0	25956	
6608	0	25938	
6609	0	26004	
6610	0	26030	
6611	0	25972	
6612	0	26016	
6613	0	26204	
6614	0	26076	
6615	0	25937	
6616	0	26015	
6617	0	26053	
6618	0	25940	
6619	0	25746	
6620	0	25766	
6621	0	25927	
6622	0	25994	
6623	0	25840	
6624	0	25844	
6625	0	25888	
6626	0	25868	
6627	0	25751	
6628	0	25838	
6629	0	25964	
6630	0	25932	
6631	0	25842	
6632	0	25800	
6633	0	25774	
6634	0	25844	
6635	0	25824	
6636	0	25786	
6637	0	25849	
6638	0	25720	
6639	0	25552	
6640	0	25672	
6641	0	25746	
6642	0	25776	
6643	0	25739	
6644	0	25604	
6645	0	25574	
6646	0	25648	
6647	0	25640	
6648	0	25612	
6649	0	25644	
6650	0	25557	
6651	0	25549	
6652	0	25611	
6653	0	25488	
6654	0	25638	
6655	0	25604	
6656	0	25657	
6657	0	25514	
6658	0	25466	
6659	0	25560	
6660	0	25570	
6661	0	25557	
6662	0	25612	
6663	0	25655	
6664	0	25601	
6665	0	25632	
6666	0	25682	
6667	0	25672	
6668	0	25760	
6669	0	25921	
6670	0	25978	
6671	0	26042	
6672	0	26188	
6673	0	26324	
6674	0	26509	
6675	0	26704	
6676	0	26862	
6677	0	26986	
6678	0	27184	
6679	0	27448	
6680	0	27732	
6681	0	27989	
6682	0	28164	
6683	0	28479	
6684	0	28784	
6685	0	28982	
6686	0	29311	
6687	0	29508	
6688	0	29838	
6689	0	30329	
6690	0	30607	
6691	0	30980	
6692	0	31367	
6693	0	31807	
6694	0	32142	
6695	0	32536	
6696	0	32860	
6697	0	33216	
6698	0	33456	
6699	0	33940	
6700	0	34250	
6701	0	34657	
6702	0	34940	
6703	0	35201	
6704	0	35554	
6705	0	36036	
6706	0	36357	
6707	0	36656	
6708	0	37034	
6709	0	37361	
6710	0	37748	
6711	0	37973	
6712	0	38412	
6713	0	38701	
6714	0	39072	
6715	0	39324	
6716	0	39592	
6717	0	39800	
6718	0	40176	
6719	0	40392	
6720	0	40700	
6721	0	40866	
6722	0	41140	
6723	0	41440	
6724	0	41552	
6725	0	41892	
6726	0	42062	
6727	0	42302	
6728	0	42528	
6729	0	42760	
6730	0	42944	
6731	0	43172	
6732	0	43412	
6733	0	43540	
6734	0	43820	
6735	0	44000	
6736	0	44108	
6737	0	44184	
6738	0	44289	
6739	0	44584	
6740	0	44804	
6741	0	44848	
6742	0	45008	
6743	0	45199	
6744	0	45332	
6745	0	45488	
6746	0	45596	
6747	0	45648	
6748	0	45768	
6749	0	45952	
6750	0	46040	
6751	0	46240	
6752	0	46388	
6753	0	46288	
6754	0	46484	
6755	0	46500	
6756	0	46625	
6757	0	46608	
6758	0	46689	
6759	0	46793	
6760	0	46924	
6761	0	46916	
6762	0	46962	
6763	0	46916	
6764	0	47044	
6765	0	47249	
6766	0	47168	
6767	0	47168	
6768	0	47194	
6769	0	47408	
6770	0	47392	
6771	0	47452	
6772	0	47456	
6773	0	47444	
6774	0	47424	
6775	0	47444	
6776	0	47498	
6777	0	47428	
6778	0	47456	
6779	0	47372	
6780	0	47448	
6781	0	47320	
6782	0	47444	
6783	0	47440	
6784	0	47416	
6785	0	47440	
6786	0	47360	
6787	0	47348	
6788	0	47336	
6789	0	47344	
6790	0	47308	
6791	0	47360	
6792	0	47284	
6793	0	47268	
6794	0	47140	
6795	0	47189	
6796	0	47096	
6797	0	46920	
6798	0	46976	
6799	0	46936	
6800	0	46928	
6801	0	46828	
6802	0	46820	
6803	0	46648	
6804	0	46696	
6805	0	46756	
6806	0	46560	
6807	0	46368	
6808	0	46472	
6809	0	46464	
6810	0	46380	
6811	0	46272	
6812	0	46256	
6813	0	46208	
6814	0	46256	
6815	0	46032	
6816	0	45964	
6817	0	45860	
6818	0	45776	
6819	0	45621	
6820	0	45736	
6821	0	45716	
6822	0	45581	
6823	0	45404	
6824	0	45284	
6825	0	45333	
6826	0	45216	
6827	0	45128	
6828	0	45117	
6829	0	45058	
6830	0	44898	
6831	0	44928	
6832	0	44800	
6833	0	44751	
6834	0	44644	
6835	0	44647	
6836	0	44589	
6837	0	44468	
6838	0	44236	
6839	0	44122	
6840	0	44165	
6841	0	44072	
6842	0	44000	
6843	0	43941	
6844	0	43752	
6845	0	43689	
6846	0	43648	
6847	0	43599	
6848	0	43620	
6849	0	43470	
6850	0	43487	
6851	0	43333	
6852	0	43328	
6853	0	43177	
6854	0	43128	
6855	0	43109	
6856	0	42964	
6857	0	42976	
6858	0	42944	
6859	0	42821	
6860	0	42688	
6861	0	42564	
6862	0	42460	
6863	0	42462	
6864	0	42360	
6865	0	42300	
6866	0	42144	
6867	0	42064	
6868	0	42080	
6869	0	42138	
6870	0	42028	
6871	0	41904	
6872	0	41900	
6873	0	41812	
6874	0	41788	
6875	0	41756	
6876	0	41584	
6877	0	41612	
6878	0	41448	
6879	0	41404	
6880	0	41376	
6881	0	41227	
6882	0	41184	
6883	0	41096	
6884	0	40904	
6885	0	40944	
6886	0	40900	
6887	0	40796	
6888	0	40772	
6889	0	40684	
6890	0	40632	
6891	0	40645	
6892	0	40596	
6893	0	40492	
6894	0	40428	
6895	0	40376	
6896	0	40320	
6897	0	40301	
6898	0	40092	
6899	0	39924	
6900	0	39920	
6901	0	39908	
6902	0	39868	
6903	0	39892	
6904	0	39652	
6905	0	39564	
6906	0	39460	
6907	0	39385	
6908	0	39372	
6909	0	39376	
6910	0	39209	
6911	0	39156	
6912	0	39086	
6913	0	39040	
6914	0	38966	
6915	0	38848	
6916	0	38784	
6917	0	38806	
6918	0	38769	
6919	0	38592	
6920	0	38580	
6921	0	38465	
6922	0	38368	
6923	0	38349	
6924	0	38172	
6925	0	38224	
6926	0	38122	
6927	0	37988	
6928	0	37968	
6929	0	37984	
6930	0	37869	
6931	0	37816	
6932	0	37732	
6933	0	37652	
6934	0	37530	
6935	0	37570	
6936	0	37484	
6937	0	37393	
6938	0	37384	
6939	0	37256	
6940	0	37264	
6941	0	37124	
6942	0	37132	
6943	0	37130	
6944	0	37057	
6945	0	37114	
6946	0	36888	
6947	0	36881	
6948	0	36836	
6949	0	36823	
6950	0	36784	
6951	0	36776	
6952	0	36784	
6953	0	36768	
6954	0	36708	
6955	0	36608	
6956	0	36456	
6957	0	36624	
6958	0	36512	
6959	0	36445	
6960	0	36316	
6961	0	36344	
6962	0	36484	
6963	0	36300	
6964	0	36304	
6965	0	36396	
6966	0	36337	
6967	0	36304	
6968	0	36268	
6969	0	36308	
6970	0	36320	
6971	0	36362	
6972	0	36264	
6973	0	36413	
6974	0	36361	
6975	0	36247	
6976	0	36232	
6977	0	36224	
6978	0	36304	
6979	0	36210	
6980	0	36072	
6981	0	36128	
6982	0	36186	
6983	0	36128	
6984	0	36096	
6985	0	36184	
6986	0	36052	
6987	0	36084	
6988	0	36145	
6989	0	36128	
6990	0	36100	
6991	0	36127	
6992	0	36180	
6993	0	36110	
6994	0	36270	
6995	0	36163	
6996	0	36107	
6997	0	36160	
6998	0	35960	
6999	0	35973	
7000	0	36128	
7001	0	36072	
7002	0	36100	
7003	0	36008	
7004	0	36116	
7005	0	36092	
7006	0	36012	
7007	0	36004	
7008	0	36000	
7009	0	36104	
7010	0	35998	
7011	0	36012	
7012	0	36072	
7013	0	36108	
7014	0	36196	
7015	0	36080	
7016	0	36064	
7017	0	36014	
7018	0	36010	
7019	0	35956	
7020	0	35960	
7021	0	36065	
7022	0	36008	
7023	0	36026	
7024	0	35993	
7025	0	35949	
7026	0	35996	
7027	0	35964	
7028	0	35948	
7029	0	35940	
7030	0	36028	
7031	0	35954	
7032	0	35998	
7033	0	36070	
7034	0	36040	
7035	0	35984	
7036	0	35908	
7037	0	36004	
7038	0	35908	
7039	0	35812	
7040	0	35780	
7041	0	35856	
7042	0	35835	
7043	0	35931	
7044	0	35864	
7045	0	35884	
7046	0	35746	
7047	0	35728	
7048	0	35844	
7049	0	35852	
7050	0	35764	
7051	0	35772	
7052	0	35774	
7053	0	35816	
7054	0	35780	
7055	0	35724	
7056	0	35714	
7057	0	35768	
7058	0	35600	
7059	0	35456	
7060	0	35504	
7061	0	35572	
7062	0	35498	
7063	0	35484	
7064	0	35424	
7065	0	35456	
7066	0	35352	
7067	0	35396	
7068	0	35296	
7069	0	35321	
7070	0	35324	
7071	0	35328	
7072	0	35378	
7073	0	35360	
7074	0	35324	
7075	0	35236	
7076	0	35120	
7077	0	35212	
7078	0	35156	
7079	0	35024	
7080	0	35020	
7081	0	34977	
7082	0	34993	
7083	0	34956	
7084	0	34862	
7085	0	34916	
7086	0	34784	
7087	0	34802	
7088	0	34788	
7089	0	34842	
7090	0	34781	
7091	0	34781	
7092	0	34750	
7093	0	34674	
7094	0	34684	
7095	0	34688	
7096	0	34476	
7097	0	34538	
7098	0	34464	
7099	0	34406	
7100	0	34272	
7101	0	34331	
7102	0	34388	
7103	0	34338	
7104	0	34220	
7105	0	34208	
7106	0	34172	
7107	0	34124	
7108	0	34004	
7109	0	34000	
7110	0	34004	
7111	0	34056	
7112	0	34020	
7113	0	34000	
7114	0	33926	
7115	0	33840	
7116	0	33809	
7117	0	33736	
7118	0	33732	
7119	0	33711	
7120	0	33630	
7121	0	33548	
7122	0	33588	
7123	0	33536	
7124	0	33418	
7125	0	33415	
7126	0	33304	
7127	0	33256	
7128	0	33276	
7129	0	33256	
7130	0	33136	
7131	0	33168	
7132	0	33152	
7133	0	33184	
7134	0	33056	
7135	0	33116	
7136	0	33046	
7137	0	32891	
7138	0	32911	
7139	0	32850	
7140	0	32916	
7141	0	32764	
7142	0	32684	
7143	0	32660	
7144	0	32568	
7145	0	32612	
7146	0	32464	
7147	0	32440	
7148	0	32449	
7149	0	32413	
7150	0	32368	
7151	0	32432	
7152	0	32353	
7153	0	32306	
7154	0	32176	
7155	0	32226	
7156	0	32072	
7157	0	32216	
7158	0	32024	
7159	0	31984	
7160	0	31990	
7161	0	31940	
7162	0	31932	
7163	0	31870	
7164	0	31772	
7165	0	31712	
7166	0	31644	
7167	0	31584	
7168	0	31576	
7169	0	31552	
7170	0	31536	
7171	0	31512	
7172	0	31488	
7173	0	31542	
7174	0	31466	
7175	0	31386	
7176	0	31276	
7177	0	31348	
7178	0	31310	
7179	0	31180	
7180	0	31118	
7181	0	31124	
7182	0	31188	
7183	0	31056	
7184	0	30992	
7185	0	31024	
7186	0	30944	
7187	0	30897	
7188	0	30892	
7189	0	30913	
7190	0	30856	
7191	0	30880	
7192	0	30761	
7193	0	30756	
7194	0	30686	
7195	0	30656	
7196	0	30622	
7197	0	30653	
7198	0	30441	
7199	0	30415	
7200	0	30531	
7201	0	30460	
7202	0	30348	
7203	0	30384	
7204	0	30344	
7205	0	30434	
7206	0	30272	
7207	0	30216	
7208	0	30218	
7209	0	30248	
7210	0	30256	
7211	0	30184	
7212	0	30188	
7213	0	30144	
7214	0	30145	
7215	0	29881	
7216	0	29996	
7217	0	30055	
7218	0	29853	
7219	0	29792	
7220	0	29872	
7221	0	29842	
7222	0	29730	
7223	0	29729	
7224	0	29684	
7225	0	29668	
7226	0	29660	
7227	0	29621	
7228	0	29567	
7229	0	29580	
7230	0	29580	
7231	0	29516	
7232	0	29550	
7233	0	29472	
7234	0	29584	
7235	0	29404	
7236	0	29265	
7237	0	29349	
7238	0	29312	
7239	0	29400	
7240	0	29229	
7241	0	29224	
7242	0	29159	
7243	0	29140	
7244	0	29026	
7245	0	29074	
7246	0	29032	
7247	0	29026	
7248	0	28964	
7249	0	29017	
7250	0	28954	
7251	0	28872	
7252	0	28946	
7253	0	28964	
7254	0	28948	
7255	0	28824	
7256	0	28882	
7257	0	28748	
7258	0	28700	
7259	0	28737	
7260	0	28765	
7261	0	28792	
7262	0	28625	
7263	0	28576	
7264	0	28492	
7265	0	28522	
7266	0	28614	
7267	0	28433	
7268	0	28523	
7269	0	28461	
7270	0	28472	
7271	0	28418	
7272	0	28432	
7273	0	28377	
7274	0	28252	
7275	0	28296	
7276	0	28292	
7277	0	28296	
7278	0	28253	
7279	0	28109	
7280	0	28244	
7281	0	28210	
7282	0	28156	
7283	0	28072	
7284	0	28084	
7285	0	28058	
7286	0	28168	
7287	0	28026	
7288	0	28011	
7289	0	27946	
7290	0	27947	
7291	0	28024	
7292	0	27968	
7293	0	27935	
7294	0	27879	
7295	0	27788	
7296	0	27828	
7297	0	27800	
7298	0	27864	
7299	0	27848	
7300	0	27828	
7301	0	27793	
7302	0	27732	
7303	0	27732	
7304	0	27736	
7305	0	27724	
7306	0	27644	
7307	0	27520	
7308	0	27512	
7309	0	27642	
7310	0	27568	
7311	0	27428	
7312	0	27470	
7313	0	27382	
7314	0	27486	
7315	0	27366	
7316	0	27512	
7317	0	27556	
7318	0	27344	
7319	0	27228	
7320	0	27304	
7321	0	27288	
7322	0	27370	
7323	0	27332	
7324	0	27242	
7325	0	27263	
7326	0	27228	
7327	0	27112	
7328	0	27208	
7329	0	27309	
7330	0	27189	
7331	0	27089	
7332	0	27078	
7333	0	27070	
7334	0	27206	
7335	0	27084	
7336	0	27032	
7337	0	27037	
7338	0	27121	
7339	0	27092	
7340	0	27092	
7341	0	27032	
7342	0	27012	
7343	0	27006	
7344	0	27006	
7345	0	26981	
7346	0	26906	
7347	0	26839	
7348	0	26803	
7349	0	26896	
7350	0	26864	
7351	0	26870	
7352	0	26872	
7353	0	26784	
7354	0	26880	
7355	0	26792	
7356	0	26894	
7357	0	26828	
7358	0	26876	
7359	0	26692	
7360	0	26775	
7361	0	26808	
7362	0	26824	
7363	0	26748	
7364	0	26658	
7365	0	26600	
7366	0	26672	
7367	0	26548	
7368	0	26664	
7369	0	26703	
7370	0	26636	
7371	0	26592	
7372	0	26704	
7373	0	26620	
7374	0	26640	
7375	0	26588	
7376	0	26594	
7377	0	26590	
7378	0	26641	
7379	0	26532	
7380	0	26560	
7381	0	26560	
7382	0	26594	
7383	0	26477	
7384	0	26472	
7385	0	26544	
7386	0	26466	
7387	0	26370	
7388	0	26470	
7389	0	26572	
7390	0	26438	
7391	0	26536	
7392	0	26448	
7393	0	26388	
7394	0	26476	
7395	0	26340	
7396	0	26418	
7397	0	26362	
7398	0	26336	
7399	0	26362	
7400	0	26328	
7401	0	26364	
7402	0	26434	
7403	0	26316	
7404	0	26288	
7405	0	26278	
7406	0	26244	
7407	0	26242	
7408	0	26187	
7409	0	26212	
7410	0	26223	
7411	0	26285	
7412	0	26165	
7413	0	26198	
7414	0	26252	
7415	0	26146	
7416	0	26228	
7417	0	26182	
7418	0	26217	
7419	0	26240	
7420	0	26160	
7421	0	26204	
7422	0	26207	
7423	0	26228	
7424	0	26108	
7425	0	26092	
7426	0	26122	
7427	0	25984	
7428	0	26113	
7429	0	26133	
7430	0	26032	
7431	0	26104	
7432	0	26100	
7433	0	26068	
7434	0	26080	
7435	0	26166	
7436	0	26104	
7437	0	26094	
7438	0	26136	
7439	0	25944	
7440	0	26028	
7441	0	25948	
7442	0	26092	
7443	0	25956	
7444	0	25920	
7445	0	25968	
7446	0	25917	
7447	0	25897	
7448	0	25893	
7449	0	25933	
7450	0	25937	
7451	0	25936	
7452	0	25946	
7453	0	26024	
7454	0	25936	
7455	0	25918	
7456	0	25861	
7457	0	26038	
7458	0	25802	
7459	0	25732	
7460	0	25780	
7461	0	25788	
7462	0	25729	
7463	0	25812	
7464	0	25788	
7465	0	25898	
7466	0	25800	
7467	0	25669	
7468	0	25700	
7469	0	25786	
7470	0	25874	
7471	0	25796	
7472	0	25760	
7473	0	25858	
7474	0	25812	
7475	0	25816	
7476	0	25613	
7477	0	25796	
7478	0	25700	
7479	0	25647	
7480	0	25596	
7481	0	25752	
7482	0	25748	
7483	0	25792	
7484	0	25706	
7485	0	25696	
7486	0	25664	
7487	0	25562	
7488	0	25620	
7489	0	25685	
7490	0	25580	
7491	0	25634	
7492	0	25640	
7493	0	25596	
7494	0	25720	
7495	0	25621	
7496	0	25568	
7497	0	25504	
7498	0	25560	
7499	0	25568	
7500	0	25501	
7501	0	25565	
7502	0	25628	
7503	0	25587	
7504	0	25442	
7505	0	25458	
7506	0	25492	
7507	0	25410	
7508	0	25473	
7509	0	25424	
7510	0	25416	
7511	0	25464	
7512	0	25461	
7513	0	25456	
7514	0	25581	
7515	0	25440	
7516	0	25382	
7517	0	25467	
7518	0	25460	
7519	0	25362	
7520	0	25410	
7521	0	25320	
7522	0	25344	
7523	0	25308	
7524	0	25224	
7525	0	25288	
7526	0	25388	
7527	0	25330	
7528	0	25201	
7529	0	25324	
7530	0	25292	
7531	0	25282	
7532	0	25322	
7533	0	25261	
7534	0	25330	
7535	0	25236	
7536	0	25165	
7537	0	25300	
7538	0	25176	
7539	0	25201	
7540	0	25208	
7541	0	25278	
7542	0	25325	
7543	0	25176	
7544	0	25104	
7545	0	25163	
7546	0	25246	
7547	0	25181	
7548	0	25180	
7549	0	25146	
7550	0	25242	
7551	0	25162	
7552	0	25112	
7553	0	25057	
7554	0	25197	
7555	0	25037	
7556	0	25096	
7557	0	25072	
7558	0	25057	
7559	0	24984	
7560	0	25008	
7561	0	25079	
7562	0	25036	
7563	0	25043	
7564	0	25064	
7565	0	25072	
7566	0	25052	
7567	0	24970	
7568	0	24996	
7569	0	24960	
7570	0	24952	
7571	0	24956	
7572	0	24973	
7573	0	24986	
7574	0	25065	
7575	0	24929	
7576	0	24893	
7577	0	24905	
7578	0	24928	
7579	0	24917	
7580	0	24889	
7581	0	24963	
7582	0	24836	
7583	0	24807	
7584	0	24780	
7585	0	24794	
7586	0	24825	
7587	0	24738	
7588	0	24818	
7589	0	24808	
7590	0	24856	
7591	0	24721	
7592	0	24864	
7593	0	25068	
7594	0	25006	
7595	0	24788	
7596	0	24800	
7597	0	24736	
7598	0	24791	
7599	0	24666	
7600	0	24686	
7601	0	24676	
7602	0	24696	
7603	0	24704	
7604	0	24580	
7605	0	24720	
7606	0	24684	
7607	0	24634	
7608	0	24684	
7609	0	24704	
7610	0	24757	
7611	0	24740	
7612	0	24676	
7613	0	24684	
7614	0	24762	
7615	0	24733	
7616	0	24537	
7617	0	24690	
7618	0	24668	
7619	0	24597	
7620	0	24586	
7621	0	24608	
7622	0	24507	
7623	0	24472	
7624	0	24428	
7625	0	24440	
7626	0	24516	
7627	0	24542	
7628	0	24544	
7629	0	24461	
7630	0	24458	
7631	0	24508	
7632	0	24568	
7633	0	24676	
7634	0	24512	
7635	0	24530	
7636	0	24384	
7637	0	24521	
7638	0	24384	
7639	0	24364	
7640	0	24482	
7641	0	24426	
7642	0	24338	
7643	0	24368	
7644	0	24436	
7645	0	24416	
7646	0	24456	
7647	0	24320	
7648	0	24428	
7649	0	24404	
7650	0	24352	
7651	0	24392	
7652	0	24433	
7653	0	24376	
7654	0	24417	
7655	0	24416	
7656	0	24296	
7657	0	24404	
7658	0	24335	
7659	0	24237	
7660	0	24376	
7661	0	24350	
7662	0	24308	
7663	0	24304	
7664	0	24216	
7665	0	24276	
7666	0	24300	
7667	0	24184	
7668	0	24208	
7669	0	24208	
7670	0	24178	
7671	0	24164	
7672	0	24292	
7673	0	24224	
7674	0	24246	
7675	0	24100	
7676	0	24109	
7677	0	24104	
7678	0	24224	
7679	0	24178	
7680	0	24200	
7681	0	24148	
7682	0	24194	
7683	0	24089	
7684	0	24006	
7685	0	24104	
7686	0	24143	
7687	0	23978	
7688	0	24018	
7689	0	24096	
7690	0	24104	
7691	0	24104	
7692	0	24074	
7693	0	24076	
7694	0	24156	
7695	0	23985	
7696	0	24062	
7697	0	24012	
7698	0	24041	
7699	0	24001	
7700	0	24128	
7701	0	23929	
7702	0	23973	
7703	0	24052	
7704	0	23950	
7705	0	23995	
7706	0	23984	
7707	0	23854	
7708	0	23852	
7709	0	23892	
7710	0	23940	
7711	0	23986	
7712	0	24016	
7713	0	24009	
7714	0	23944	
7715	0	24016	
7716	0	23829	
7717	0	23994	
7718	0	23895	
7719	0	23820	
7720	0	23872	
7721	0	23820	
7722	0	23840	
7723	0	23916	
7724	0	23885	
7725	0	23776	
7726	0	23804	
7727	0	23872	
7728	0	23828	
7729	0	23930	
7730	0	23874	
7731	0	24024	
7732	0	23869	
7733	0	23803	
7734	0	23952	
7735	0	23784	
7736	0	23810	
7737	0	23871	
7738	0	23864	
7739	0	23796	
7740	0	23858	
7741	0	23816	
7742	0	23824	
7743	0	23776	
7744	0	23808	
7745	0	23777	
7746	0	23856	
7747	0	23712	
7748	0	23840	
7749	0	23746	
7750	0	23764	
7751	0	23787	
7752	0	23820	
7753	0	23686	
7754	0	23812	
7755	0	23798	
7756	0	23832	
7757	0	23789	
7758	0	23868	
7759	0	23896	
7760	0	23905	
7761	0	23820	
7762	0	23748	
7763	0	23731	
7764	0	23722	
7765	0	23812	
7766	0	23769	
7767	0	23722	
7768	0	23770	
7769	0	23732	
7770	0	23717	
7771	0	23898	
7772	0	23841	
7773	0	23771	
7774	0	23840	
7775	0	23820	
7776	0	23724	
7777	0	23908	
7778	0	23672	
7779	0	23748	
7780	0	23816	
7781	0	23778	
7782	0	23796	
7783	0	23781	
7784	0	23712	
7785	0	23756	
7786	0	23800	
7787	0	23777	
7788	0	23732	
7789	0	23744	
7790	0	23824	
7791	0	23872	
7792	0	23768	
7793	0	23874	
7794	0	23780	
7795	0	23772	
7796	0	23695	
7797	0	23902	
7798	0	23800	
7799	0	23816	
7800	0	23850	
7801	0	23829	
7802	0	23808	
7803	0	23716	
7804	0	23704	
7805	0	23702	
7806	0	23694	
7807	0	23620	
7808	0	23705	
7809	0	23714	
7810	0	23672	
7811	0	23840	
7812	0	23876	
7813	0	23688	
7814	0	23716	
7815	0	23660	
7816	0	23608	
7817	0	23678	
7818	0	23704	
7819	0	23626	
7820	0	23632	
7821	0	23605	
7822	0	23740	
7823	0	23707	
7824	0	23648	
7825	0	23616	
7826	0	23688	
7827	0	23608	
7828	0	23578	
7829	0	23700	
7830	0	23716	
7831	0	23693	
7832	0	23700	
7833	0	23744	
7834	0	23753	
7835	0	23852	
7836	0	23692	
7837	0	23896	
7838	0	23922	
7839	0	24005	
7840	0	24102	
7841	0	24132	
7842	0	24329	
7843	0	24440	
7844	0	24572	
7845	0	24792	
7846	0	25008	
7847	0	25093	
7848	0	25324	
7849	0	25624	
7850	0	25904	
7851	0	26210	
7852	0	26496	
7853	0	26758	
7854	0	27232	
7855	0	27569	
7856	0	27952	
7857	0	28352	
7858	0	28856	
7859	0	29256	
7860	0	29724	
7861	0	30160	
7862	0	30604	
7863	0	30988	
7864	0	31428	
7865	0	31988	
7866	0	32516	
7867	0	32964	
7868	0	33452	
7869	0	33948	
7870	0	34416	
7871	0	35004	
7872	0	35528	
7873	0	36010	
7874	0	36452	
7875	0	36908	
7876	0	37232	
7877	0	37752	
7878	0	38288	
7879	0	38672	
7880	0	39158	
7881	0	39553	
7882	0	40040	
7883	0	40408	
7884	0	40724	
7885	0	41244	
7886	0	41584	
7887	0	41856	
7888	0	42152	
7889	0	42584	
7890	0	42992	
7891	0	43367	
7892	0	43560	
7893	0	43921	
7894	0	44298	
7895	0	44592	
7896	0	44728	
7897	0	45268	
7898	0	45438	
7899	0	45608	
7900	0	45909	
7901	0	46180	
7902	0	46488	
7903	0	46584	
7904	0	46832	
7905	0	47002	
7906	0	47328	
7907	0	47470	
7908	0	47684	
7909	0	47940	
7910	0	48152	
7911	0	48328	
7912	0	48532	
7913	0	48556	
7914	0	48936	
7915	0	49041	
7916	0	49124	
7917	0	49223	
7918	0	49480	
7919	0	49680	
7920	0	49837	
7921	0	49924	
7922	0	50096	
7923	0	50252	
7924	0	50320	
7925	0	50464	
7926	0	50608	
7927	0	50632	
7928	0	50676	
7929	0	50832	
7930	0	50880	
7931	0	50976	
7932	0	51132	
7933	0	51345	
7934	0	51412	
7935	0	51386	
7936	0	51464	
7937	0	51448	
7938	0	51584	
7939	0	51600	
7940	0	51720	
7941	0	51686	
7942	0	51724	
7943	0	51780	
7944	0	51752	
7945	0	51823	
7946	0	51904	
7947	0	51840	
7948	0	51878	
7949	0	51904	
7950	0	51981	
7951	0	52116	
7952	0	52032	
7953	0	52020	
7954	0	52004	
7955	0	52032	
7956	0	51868	
7957	0	52064	
7958	0	51898	
7959	0	51898	
7960	0	51908	
7961	0	51868	
7962	0	51878	
7963	0	51840	
7964	0	51752	
7965	0	51700	
7966	0	51689	
7967	0	51624	
7968	0	51616	
7969	0	51564	
7970	0	51560	
7971	0	51548	
7972	0	51496	
7973	0	51402	
7974	0	51415	
7975	0	51288	
7976	0	51264	
7977	0	51356	
7978	0	51032	
7979	0	51044	
7980	0	51064	
7981	0	50897	
7982	0	50826	
7983	0	50714	
7984	0	50673	
7985	0	50588	
7986	0	50576	
7987	0	50468	
7988	0	50460	
7989	0	50376	
7990	0	50324	
7991	0	50246	
7992	0	50180	
7993	0	50112	
7994	0	50104	
7995	0	49856	
7996	0	49825	
7997	0	49676	
7998	0	49720	
7999	0	49608	
8000	0	49512	
8001	0	49460	
8002	0	49280	
8003	0	49344	
8004	0	49084	
8005	0	49120	
8006	0	49033	
8007	0	48826	
8008	0	48752	
8009	0	48689	
8010	0	48657	
8011	0	48604	
8012	0	48561	
8013	0	48532	
8014	0	48360	
8015	0	48320	
8016	0	48160	
8017	0	48212	
8018	0	48060	
8019	0	48004	
8020	0	47848	
8021	0	47702	
8022	0	47692	
8023	0	47616	
8024	0	47576	
8025	0	47400	
8026	0	47360	
8027	0	47296	
8028	0	47304	
8029	0	47260	
8030	0	47208	
8031	0	47028	
8032	0	46988	
8033	0	46986	
8034	0	46940	
8035	0	46820	
8036	0	46597	
8037	0	46686	
8038	0	46478	
8039	0	46312	
8040	0	46366	
8041	0	46423	
8042	0	46280	
8043	0	46224	
8044	0	46028	
8045	0	45988	
8046	0	45940	
8047	0	45852	
8048	0	45768	
8049	0	45760	
8050	0	45797	
8051	0	45636	
8052	0	45616	
8053	0	45592	
8054	0	45640	
8055	0	45428	
8056	0	45393	
8057	0	45312	
8058	0	45336	
8059	0	45292	
8060	0	45088	
8061	0	45096	
8062	0	45044	
8063	0	44909	
8064	0	44772	
8065	0	44767	
8066	0	44804	
8067	0	44708	
8068	0	44624	
8069	0	44582	
8070	0	44568	
8071	0	44568	
8072	0	44461	
8073	0	44468	
8074	0	44340	
8075	0	44224	
8076	0	44129	
8077	0	44072	
8078	0	44036	
8079	0	43969	
8080	0	43870	
8081	0	43848	
8082	0	43761	
8083	0	43688	
8084	0	43532	
8085	0	43550	
8086	0	43492	
8087	0	43380	
8088	0	43352	
8089	0	43300	
8090	0	43200	
8091	0	43264	
8092	0	43160	
8093	0	43048	
8094	0	43004	
8095	0	42996	
8096	0	42692	
8097	0	42832	
8098	0	42560	
8099	0	42496	
8100	0	42564	
8101	0	42408	
8102	0	42348	
8103	0	42288	
8104	0	42225	
8105	0	42040	
8106	0	42154	
8107	0	41960	
8108	0	41876	
8109	0	41890	
8110	0	41768	
8111	0	41724	
8112	0	41688	
8113	0	41592	
8114	0	41636	
8115	0	41558	
8116	0	41525	
8117	0	41306	
8118	0	41309	
8119	0	41361	
8120	0	41316	
8121	0	41086	
8122	0	41008	
8123	0	40984	
8124	0	40992	
8125	0	40797	
8126	0	40824	
8127	0	40744	
8128	0	40768	
8129	0	40749	
8130	0	40712	
8131	0	40714	
8132	0	40608	
8133	0	40580	
8134	0	40556	
8135	0	40428	
8136	0	40420	
8137	0	40322	
8138	0	40340	
8139	0	40284	
8140	0	40160	
8141	0	40171	
8142	0	40096	
8143	0	40116	
8144	0	40068	
8145	0	40074	
8146	0	40108	
8147	0	39998	
8148	0	39926	
8149	0	39856	
8150	0	39924	
8151	0	39896	
8152	0	39908	
8153	0	39848	
8154	0	39900	
8155	0	39733	
8156	0	39796	
8157	0	39732	
8158	0	39776	
8159	0	39836	
8160	0	39680	
8161	0	39628	
8162	0	39513	
8163	0	39514	
8164	0	39554	
8165	0	39544	
8166	0	39532	
8167	0	39476	
8168	0	39398	
8169	0	39404	
8170	0	39572	
8171	0	39458	
8172	0	39434	
8173	0	39408	
8174	0	39468	
8175	0	39416	
8176	0	39280	
8177	0	39356	
8178	0	39316	
8179	0	39278	
8180	0	39244	
8181	0	39288	
8182	0	39220	
8183	0	39146	
8184	0	39160	
8185	0	39108	
8186	0	39220	
8187	0	39194	
8188	0	39093	
8189	0	39098	
8190	0	39122	
8191	0	39120	
8192	0	39108	
8193	0	39088	
8194	0	39162	
8195	0	38900	
8196	0	39028	
8197	0	39020	
8198	0	39060	
8199	0	39044	
8200	0	39077	
8201	0	38933	
8202	0	38973	
8203	0	38839	
8204	0	38808	
8205	0	38832	
8206	0	38864	
8207	0	38840	
8208	0	38828	
8209	0	38916	
8210	0	38844	
8211	0	38756	
8212	0	38848	
8213	0	38756	
8214	0	38770	
8215	0	38712	
8216	0	38669	
8217	0	38647	
8218	0	38746	
8219	0	38706	
8220	0	38708	
8221	0	38720	
8222	0	38541	
8223	0	38592	
8224	0	38534	
8225	0	38492	
8226	0	38500	
8227	0	38508	
8228	0	38436	
8229	0	38452	
8230	0	38548	
8231	0	38500	
8232	0	38540	
8233	0	38439	
8234	0	38437	
8235	0	38368	
8236	0	38240	
8237	0	38353	
8238	0	38204	
8239	0	38144	
8240	0	38152	
8241	0	38132	
8242	0	38212	
8243	0	38148	
8244	0	38038	
8245	0	38052	
8246	0	38109	
8247	0	37936	
8248	0	37960	
8249	0	37976	
8250	0	38008	
8251	0	37820	
8252	0	37820	
8253	0	37775	
8254	0	37806	
8255	0	37854	
8256	0	37760	
8257	0	37672	
8258	0	37672	
8259	0	37668	
8260	0	37432	
8261	0	37577	
8262	0	37509	
8263	0	37399	
8264	0	37336	
8265	0	37366	
8266	0	37296	
8267	0	37316	
8268	0	37244	
8269	0	37240	
8270	0	37184	
8271	0	37196	
8272	0	37100	
8273	0	37105	
8274	0	37092	
8275	0	37014	
8276	0	36832	
8277	0	36938	
8278	0	36839	
8279	0	36849	
8280	0	36736	
8281	0	36788	
8282	0	36694	
8283	0	36684	
8284	0	36652	
8285	0	36580	
8286	0	36658	
8287	0	36464	
8288	0	36372	
8289	0	36424	
8290	0	36380	
8291	0	36330	
8292	0	36292	
8293	0	36224	
8294	0	36300	
8295	0	36209	
8296	0	36152	
8297	0	36176	
8298	0	36174	
8299	0	36098	
8300	0	36001	
8301	0	35872	
8302	0	35853	
8303	0	35728	
8304	0	35663	
8305	0	35604	
8306	0	35654	
8307	0	35608	
8308	0	35501	
8309	0	35564	
8310	0	35397	
8311	0	35508	
8312	0	35466	
8313	0	35400	
8314	0	35396	
8315	0	35281	
8316	0	35128	
8317	0	35244	
8318	0	35056	
8319	0	34956	
8320	0	35140	
8321	0	34944	
8322	0	34938	
8323	0	34912	
8324	0	34792	
8325	0	34718	
8326	0	34712	
8327	0	34524	
8328	0	34536	
8329	0	34592	
8330	0	34569	
8331	0	34364	
8332	0	34408	
8333	0	34420	
8334	0	34396	
8335	0	34298	
8336	0	34272	
8337	0	34242	
8338	0	34308	
8339	0	34180	
8340	0	34024	
8341	0	33984	
8342	0	34032	
8343	0	33868	
8344	0	33740	
8345	0	33762	
8346	0	33770	
8347	0	33699	
8348	0	33632	
8349	0	33656	
8350	0	33628	
8351	0	33584	
8352	0	33600	
8353	0	33524	
8354	0	33484	
8355	0	33322	
8356	0	33335	
8357	0	33324	
8358	0	33180	
8359	0	33236	
8360	0	33114	
8361	0	33116	
8362	0	33117	
8363	0	33064	
8364	0	33068	
8365	0	33006	
8366	0	32917	
8367	0	32811	
8368	0	32716	
8369	0	32764	
8370	0	32840	
8371	0	32764	
8372	0	32749	
8373	0	32656	
8374	0	32672	
8375	0	32642	
8376	0	32532	
8377	0	32569	
8378	0	32445	
8379	0	32352	
8380	0	32320	
8381	0	32328	
8382	0	32276	
8383	0	32297	
8384	0	32116	
8385	0	32126	
8386	0	32108	
8387	0	32060	
8388	0	31992	
8389	0	32108	
8390	0	32021	
8391	0	31933	
8392	0	31980	
8393	0	31840	
8394	0	31842	
8395	0	31841	
8396	0	31816	
8397	0	31872	
8398	0	31608	
8399	0	31553	
8400	0	31696	
8401	0	31604	
8402	0	31488	
8403	0	31448	
8404	0	31376	
8405	0	31284	
8406	0	31364	
8407	0	31270	
8408	0	31356	
8409	0	31369	
8410	0	31332	
8411	0	31276	
8412	0	31268	
8413	0	31256	
8414	0	31160	
8415	0	31116	
8416	0	31057	
8417	0	30956	
8418	0	30980	
8419	0	30876	
8420	0	30820	
8421	0	30888	
8422	0	30776	
8423	0	30752	
8424	0	30757	
8425	0	30668	
8426	0	30762	
8427	0	30652	
8428	0	30621	
8429	0	30605	
8430	0	30567	
8431	0	30560	
8432	0	30580	
8433	0	30602	
8434	0	30538	
8435	0	30464	
8436	0	30352	
8437	0	30512	
8438	0	30356	
8439	0	30308	
8440	0	30288	
8441	0	30360	
8442	0	30210	
8443	0	30208	
8444	0	30172	
8445	0	30121	
8446	0	30170	
8447	0	30050	
8448	0	30040	
8449	0	30076	
8450	0	30064	
8451	0	29962	
8452	0	30008	
8453	0	29897	
8454	0	29930	
8455	0	29808	
8456	0	29798	
8457	0	29892	
8458	0	29748	
8459	0	29718	
8460	0	29744	
8461	0	29692	
8462	0	29584	
8463	0	29656	
8464	0	29476	
8465	0	29484	
8466	0	29529	
8467	0	29406	
8468	0	29420	
8469	0	29494	
8470	0	29456	
8471	0	29356	
8472	0	29428	
8473	0	29472	
8474	0	29424	
8475	0	29304	
8476	0	29340	
8477	0	29340	
8478	0	29354	
8479	0	29260	
8480	0	29232	
8481	0	29168	
8482	0	29164	
8483	0	29128	
8484	0	29073	
8485	0	29044	
8486	0	29167	
8487	0	28994	
8488	0	28956	
8489	0	29005	
8490	0	28912	
8491	0	29016	
8492	0	28964	
8493	0	28886	
8494	0	28876	
8495	0	28943	
8496	0	28776	
8497	0	28826	
8498	0	28888	
8499	0	28785	
8500	0	28680	
8501	0	28748	
8502	0	28788	
8503	0	28624	
8504	0	28712	
8505	0	28632	
8506	0	28576	
8507	0	28556	
8508	0	28553	
8509	0	28616	
8510	0	28537	
8511	0	28535	
8512	0	28499	
8513	0	28552	
8514	0	28520	
8515	0	28486	
8516	0	28464	
8517	0	28477	
8518	0	28534	
8519	0	28362	
8520	0	28404	
8521	0	28448	
8522	0	28393	
8523	0	28309	
8524	0	28304	
8525	0	28296	
8526	0	28293	
8527	0	28137	
8528	0	28166	
8529	0	28294	
8530	0	28268	
8531	0	28253	
8532	0	28146	
8533	0	28176	
8534	0	28260	
8535	0	28152	
8536	0	28183	
8537	0	28065	
8538	0	28184	
8539	0	28055	
8540	0	28116	
8541	0	28085	
8542	0	28046	
8543	0	28096	
8544	0	27984	
8545	0	28016	
8546	0	28052	
8547	0	27973	
8548	0	27929	
8549	0	27920	
8550	0	27900	
8551	0	27918	
8552	0	27904	
8553	0	27920	
8554	0	27948	
8555	0	28023	
8556	0	27862	
8557	0	27908	
8558	0	27928	
8559	0	27822	
8560	0	27782	
8561	0	27812	
8562	0	27792	
8563	0	27722	
8564	0	27648	
8565	0	27696	
8566	0	27759	
8567	0	27756	
8568	0	27680	
8569	0	27636	
8570	0	27765	
8571	0	27804	
8572	0	27724	
8573	0	27704	
8574	0	27720	
8575	0	27681	
8576	0	27536	
8577	0	27713	
8578	0	27540	
8579	0	27568	
8580	0	27562	
8581	0	27468	
8582	0	27522	
8583	0	27568	
8584	0	27498	
8585	0	27562	
8586	0	27548	
8587	0	27413	
8588	0	27420	
8589	0	27465	
8590	0	27412	
8591	0	27489	
8592	0	27429	
8593	0	27360	
