# OpenSignals Text File Format. Version 1
# {"00:07:80:8C:AD:D6": {"position": 0, "device": "biosignalsplux", "device name": "ECG", "device connection": "BTH00:07:80:8C:AD:D6", "sampling rate": 1000, "resolution": [16], "firmware version": 776, "comments": "avani", "keywords": "", "mode": 0, "sync interval": 2, "date": "2024-2-28", "time": "14:50:24.346", "channels": [1], "sensor": ["BVP"], "label": ["CH1"], "column": ["nSeq", "DI", "CH1"], "special": [{"SpO2": [80, 40, 5, 4, 3, 3]}, {"SpO2": [80, 40, 5, 4, 3, 3]}, {"SpO2": [80, 40, 5, 4, 3, 3]}, {"SpO2": [80, 40, 5, 4, 3, 3]}, {"SpO2": [80, 40, 5, 4, 3, 3]}, {"SpO2": [80, 40, 5, 4, 3, 3]}, {"SpO2": [80, 40, 5, 4, 3, 3]}, {"SpO2": [80, 40, 5, 4, 3, 3]}], "digital IO": [0, 1], "sleeve color": ["dark_blue"]}}
# EndOfHeader
0	0	28487	
1	0	28468	
2	0	28356	
3	0	28325	
4	0	28297	
5	0	28200	
6	0	28104	
7	0	27968	
8	0	27802	
9	0	27724	
10	0	27596	
11	0	27448	
12	0	27421	
13	0	27221	
14	0	27157	
15	0	27020	
16	0	26908	
17	0	26880	
18	0	26770	
19	0	26681	
20	0	26628	
21	0	26601	
22	0	26457	
23	0	26384	
24	0	26304	
25	0	26202	
26	0	26184	
27	0	25998	
28	0	25870	
29	0	25784	
30	0	25592	
31	0	25492	
32	0	25334	
33	0	25264	
34	0	25172	
35	0	25098	
36	0	24929	
37	0	24872	
38	0	24764	
39	0	24692	
40	0	24622	
41	0	24584	
42	0	24572	
43	0	24492	
44	0	24381	
45	0	24248	
46	0	24154	
47	0	24040	
48	0	23873	
49	0	23744	
50	0	23584	
51	0	23456	
52	0	23328	
53	0	23208	
54	0	23170	
55	0	23061	
56	0	22944	
57	0	22884	
58	0	22828	
59	0	22704	
60	0	22648	
61	0	22644	
62	0	22593	
63	0	22498	
64	0	22464	
65	0	22356	
66	0	22236	
67	0	22118	
68	0	21985	
69	0	21868	
70	0	21719	
71	0	21608	
72	0	21520	
73	0	21459	
74	0	21350	
75	0	21341	
76	0	21180	
77	0	21115	
78	0	21072	
79	0	20920	
80	0	20836	
81	0	20776	
82	0	20757	
83	0	20644	
84	0	20554	
85	0	20480	
86	0	20349	
87	0	20223	
88	0	20101	
89	0	20026	
90	0	19870	
91	0	19732	
92	0	19670	
93	0	19633	
94	0	19490	
95	0	19351	
96	0	19244	
97	0	19196	
98	0	19141	
99	0	18996	
100	0	18957	
101	0	18881	
102	0	18796	
103	0	18729	
104	0	18664	
105	0	18554	
106	0	18481	
107	0	18320	
108	0	18197	
109	0	18104	
110	0	17888	
111	0	17806	
112	0	17660	
113	0	17560	
114	0	17505	
115	0	17386	
116	0	17302	
117	0	17256	
118	0	17178	
119	0	17096	
120	0	17018	
121	0	16965	
122	0	16880	
123	0	16804	
124	0	16713	
125	0	16589	
126	0	16584	
127	0	16401	
128	0	16275	
129	0	16179	
130	0	16028	
131	0	15920	
132	0	15849	
133	0	15692	
134	0	15674	
135	0	15568	
136	0	15418	
137	0	15372	
138	0	15329	
139	0	15236	
140	0	15208	
141	0	15189	
142	0	15160	
143	0	15073	
144	0	15004	
145	0	14921	
146	0	14817	
147	0	14661	
148	0	14600	
149	0	14528	
150	0	14450	
151	0	14304	
152	0	14217	
153	0	14188	
154	0	14057	
155	0	13994	
156	0	13966	
157	0	13908	
158	0	13874	
159	0	13792	
160	0	13799	
161	0	13790	
162	0	13749	
163	0	13712	
164	0	13732	
165	0	13689	
166	0	13568	
167	0	13534	
168	0	13406	
169	0	13357	
170	0	13276	
171	0	13221	
172	0	13168	
173	0	13161	
174	0	13089	
175	0	13096	
176	0	13093	
177	0	13064	
178	0	13032	
179	0	13028	
180	0	13042	
181	0	13037	
182	0	13027	
183	0	12940	
184	0	12986	
185	0	12912	
186	0	12819	
187	0	12793	
188	0	12747	
189	0	12685	
190	0	12579	
191	0	12512	
192	0	12476	
193	0	12446	
194	0	12354	
195	0	12364	
196	0	12293	
197	0	12294	
198	0	12307	
199	0	12236	
200	0	12254	
201	0	12239	
202	0	12288	
203	0	12272	
204	0	12260	
205	0	12277	
206	0	12225	
207	0	12140	
208	0	12026	
209	0	11986	
210	0	11933	
211	0	11902	
212	0	11826	
213	0	11826	
214	0	11802	
215	0	11746	
216	0	11690	
217	0	11733	
218	0	11716	
219	0	11706	
220	0	11701	
221	0	11717	
222	0	11729	
223	0	11754	
224	0	11769	
225	0	11775	
226	0	11699	
227	0	11645	
228	0	11588	
229	0	11558	
230	0	11518	
231	0	11464	
232	0	11472	
233	0	11439	
234	0	11432	
235	0	11392	
236	0	11440	
237	0	11388	
238	0	11384	
239	0	11381	
240	0	11375	
241	0	11489	
242	0	11455	
243	0	11517	
244	0	11559	
245	0	11493	
246	0	11428	
247	0	11444	
248	0	11422	
249	0	11421	
250	0	11426	
251	0	11369	
252	0	11482	
253	0	11513	
254	0	11598	
255	0	11664	
256	0	11808	
257	0	11914	
258	0	12053	
259	0	12225	
260	0	12460	
261	0	12710	
262	0	12980	
263	0	13316	
264	0	13608	
265	0	13932	
266	0	14268	
267	0	14624	
268	0	15020	
269	0	15472	
270	0	15861	
271	0	16360	
272	0	16864	
273	0	17377	
274	0	17958	
275	0	18540	
276	0	19143	
277	0	19760	
278	0	20404	
279	0	21047	
280	0	21687	
281	0	22400	
282	0	23090	
283	0	23789	
284	0	24447	
285	0	25137	
286	0	25800	
287	0	26432	
288	0	27036	
289	0	27688	
290	0	28324	
291	0	28976	
292	0	29600	
293	0	30284	
294	0	30976	
295	0	31617	
296	0	32228	
297	0	32852	
298	0	33452	
299	0	34076	
300	0	34660	
301	0	35228	
302	0	35832	
303	0	36398	
304	0	36938	
305	0	37464	
306	0	37984	
307	0	38431	
308	0	38824	
309	0	39328	
310	0	39784	
311	0	40109	
312	0	40564	
313	0	41030	
314	0	41432	
315	0	41800	
316	0	42173	
317	0	42636	
318	0	42996	
319	0	43368	
320	0	43776	
321	0	44116	
322	0	44448	
323	0	44828	
324	0	45088	
325	0	45384	
326	0	45705	
327	0	45972	
328	0	46208	
329	0	46394	
330	0	46584	
331	0	46773	
332	0	47005	
333	0	47240	
334	0	47464	
335	0	47664	
336	0	47840	
337	0	48004	
338	0	48192	
339	0	48400	
340	0	48552	
341	0	48728	
342	0	48866	
343	0	49060	
344	0	49152	
345	0	49240	
346	0	49360	
347	0	49424	
348	0	49448	
349	0	49494	
350	0	49500	
351	0	49504	
352	0	49520	
353	0	49576	
354	0	49597	
355	0	49614	
356	0	49664	
357	0	49692	
358	0	49740	
359	0	49680	
360	0	49709	
361	0	49721	
362	0	49764	
363	0	49696	
364	0	49708	
365	0	49658	
366	0	49592	
367	0	49473	
368	0	49342	
369	0	49248	
370	0	49168	
371	0	48992	
372	0	48880	
373	0	48792	
374	0	48760	
375	0	48564	
376	0	48442	
377	0	48361	
378	0	48240	
379	0	48121	
380	0	48052	
381	0	47952	
382	0	47802	
383	0	47686	
384	0	47528	
385	0	47424	
386	0	47248	
387	0	47052	
388	0	46856	
389	0	46616	
390	0	46464	
391	0	46260	
392	0	46052	
393	0	45892	
394	0	45698	
395	0	45520	
396	0	45380	
397	0	45184	
398	0	45012	
399	0	44820	
400	0	44672	
401	0	44504	
402	0	44280	
403	0	44124	
404	0	43912	
405	0	43752	
406	0	43508	
407	0	43284	
408	0	43008	
409	0	42758	
410	0	42524	
411	0	42264	
412	0	42052	
413	0	41850	
414	0	41624	
415	0	41466	
416	0	41256	
417	0	41051	
418	0	40894	
419	0	40656	
420	0	40498	
421	0	40284	
422	0	40087	
423	0	39944	
424	0	39668	
425	0	39509	
426	0	39264	
427	0	39000	
428	0	38748	
429	0	38516	
430	0	38332	
431	0	38124	
432	0	37890	
433	0	37688	
434	0	37488	
435	0	37295	
436	0	37105	
437	0	36908	
438	0	36736	
439	0	36540	
440	0	36372	
441	0	36224	
442	0	36080	
443	0	35936	
444	0	35768	
445	0	35588	
446	0	35396	
447	0	35205	
448	0	34938	
449	0	34744	
450	0	34528	
451	0	34368	
452	0	34180	
453	0	33992	
454	0	33774	
455	0	33608	
456	0	33462	
457	0	33306	
458	0	33198	
459	0	33066	
460	0	32872	
461	0	32758	
462	0	32680	
463	0	32532	
464	0	32360	
465	0	32204	
466	0	32040	
467	0	31852	
468	0	31632	
469	0	31444	
470	0	31309	
471	0	31072	
472	0	30980	
473	0	30793	
474	0	30572	
475	0	30424	
476	0	30216	
477	0	30132	
478	0	29953	
479	0	29752	
480	0	29592	
481	0	29557	
482	0	29394	
483	0	29252	
484	0	29124	
485	0	28956	
486	0	28808	
487	0	28592	
488	0	28410	
489	0	28210	
490	0	27987	
491	0	27712	
492	0	27585	
493	0	27440	
494	0	27276	
495	0	27029	
496	0	26900	
497	0	26728	
498	0	26593	
499	0	26462	
500	0	26308	
501	0	26177	
502	0	26068	
503	0	25940	
504	0	25820	
505	0	25676	
506	0	25513	
507	0	25290	
508	0	25145	
509	0	24984	
510	0	24838	
511	0	24673	
512	0	24544	
513	0	24436	
514	0	24299	
515	0	24178	
516	0	24080	
517	0	23952	
518	0	23921	
519	0	23866	
520	0	23746	
521	0	23716	
522	0	23688	
523	0	23628	
524	0	23616	
525	0	23581	
526	0	23498	
527	0	23405	
528	0	23318	
529	0	23248	
530	0	23208	
531	0	23114	
532	0	23092	
533	0	23080	
534	0	23092	
535	0	23040	
536	0	23029	
537	0	23056	
538	0	23110	
539	0	23090	
540	0	23117	
541	0	23197	
542	0	23236	
543	0	23281	
544	0	23313	
545	0	23396	
546	0	23368	
547	0	23356	
548	0	23328	
549	0	23417	
550	0	23414	
551	0	23400	
552	0	23412	
553	0	23452	
554	0	23512	
555	0	23542	
556	0	23573	
557	0	23680	
558	0	23737	
559	0	23826	
560	0	23948	
561	0	24125	
562	0	24186	
563	0	24268	
564	0	24288	
565	0	24442	
566	0	24449	
567	0	24500	
568	0	24492	
569	0	24560	
570	0	24580	
571	0	24640	
572	0	24728	
573	0	24780	
574	0	24860	
575	0	24944	
576	0	25012	
577	0	25124	
578	0	25184	
579	0	25304	
580	0	25412	
581	0	25512	
582	0	25648	
583	0	25753	
584	0	25866	
585	0	25920	
586	0	25976	
587	0	26032	
588	0	26028	
589	0	26036	
590	0	26140	
591	0	26205	
592	0	26296	
593	0	26372	
594	0	26437	
595	0	26556	
596	0	26576	
597	0	26632	
598	0	26740	
599	0	26864	
600	0	26836	
601	0	27012	
602	0	27077	
603	0	27158	
604	0	27246	
605	0	27288	
606	0	27340	
607	0	27380	
608	0	27344	
609	0	27392	
610	0	27433	
611	0	27384	
612	0	27484	
613	0	27568	
614	0	27609	
615	0	27632	
616	0	27692	
617	0	27714	
618	0	27832	
619	0	27824	
620	0	27920	
621	0	27973	
622	0	28024	
623	0	28072	
624	0	28102	
625	0	28106	
626	0	28200	
627	0	28170	
628	0	28168	
629	0	28060	
630	0	28100	
631	0	28041	
632	0	28068	
633	0	28102	
634	0	28121	
635	0	28080	
636	0	28061	
637	0	28084	
638	0	28088	
639	0	28084	
640	0	28129	
641	0	28166	
642	0	28160	
643	0	28184	
644	0	28189	
645	0	28192	
646	0	28189	
647	0	28088	
648	0	28062	
649	0	28057	
650	0	27965	
651	0	27960	
652	0	27868	
653	0	27824	
654	0	27811	
655	0	27712	
656	0	27720	
657	0	27712	
658	0	27724	
659	0	27724	
660	0	27640	
661	0	27654	
662	0	27664	
663	0	27670	
664	0	27644	
665	0	27595	
666	0	27558	
667	0	27484	
668	0	27376	
669	0	27266	
670	0	27252	
671	0	27168	
672	0	27116	
673	0	27036	
674	0	26990	
675	0	26944	
676	0	26885	
677	0	26850	
678	0	26796	
679	0	26808	
680	0	26740	
681	0	26700	
682	0	26664	
683	0	26612	
684	0	26549	
685	0	26512	
686	0	26446	
687	0	26408	
688	0	26225	
689	0	26165	
690	0	26098	
691	0	25978	
692	0	25880	
693	0	25816	
694	0	25776	
695	0	25692	
696	0	25600	
697	0	25520	
698	0	25557	
699	0	25424	
700	0	25379	
701	0	25309	
702	0	25316	
703	0	25235	
704	0	25236	
705	0	25176	
706	0	25036	
707	0	24956	
708	0	24816	
709	0	24728	
710	0	24634	
711	0	24522	
712	0	24400	
713	0	24381	
714	0	24292	
715	0	24228	
716	0	24149	
717	0	24065	
718	0	24018	
719	0	23956	
720	0	23972	
721	0	23920	
722	0	23880	
723	0	23776	
724	0	23754	
725	0	23674	
726	0	23602	
727	0	23530	
728	0	23386	
729	0	23256	
730	0	23160	
731	0	23012	
732	0	22936	
733	0	22852	
734	0	22769	
735	0	22656	
736	0	22618	
737	0	22517	
738	0	22475	
739	0	22400	
740	0	22320	
741	0	22285	
742	0	22242	
743	0	22176	
744	0	22152	
745	0	22049	
746	0	21973	
747	0	21900	
748	0	21780	
749	0	21673	
750	0	21556	
751	0	21406	
752	0	21240	
753	0	21236	
754	0	21142	
755	0	21080	
756	0	21032	
757	0	20932	
758	0	20888	
759	0	20770	
760	0	20717	
761	0	20734	
762	0	20796	
763	0	20702	
764	0	20580	
765	0	20558	
766	0	20508	
767	0	20417	
768	0	20311	
769	0	20196	
770	0	20066	
771	0	19976	
772	0	19786	
773	0	19825	
774	0	19722	
775	0	19638	
776	0	19556	
777	0	19528	
778	0	19528	
779	0	19456	
780	0	19412	
781	0	19396	
782	0	19404	
783	0	19322	
784	0	19270	
785	0	19233	
786	0	19124	
787	0	19049	
788	0	18934	
789	0	18839	
790	0	18753	
791	0	18679	
792	0	18551	
793	0	18550	
794	0	18456	
795	0	18416	
796	0	18384	
797	0	18377	
798	0	18334	
799	0	18242	
800	0	18205	
801	0	18200	
802	0	18190	
803	0	18216	
804	0	18124	
805	0	18050	
806	0	18008	
807	0	17904	
808	0	17776	
809	0	17736	
810	0	17618	
811	0	17586	
812	0	17456	
813	0	17506	
814	0	17449	
815	0	17369	
816	0	17360	
817	0	17280	
818	0	17260	
819	0	17210	
820	0	17164	
821	0	17144	
822	0	17148	
823	0	17118	
824	0	17073	
825	0	17024	
826	0	17000	
827	0	16932	
828	0	16833	
829	0	16754	
830	0	16705	
831	0	16576	
832	0	16465	
833	0	16527	
834	0	16496	
835	0	16394	
836	0	16374	
837	0	16345	
838	0	16317	
839	0	16276	
840	0	16243	
841	0	16289	
842	0	16296	
843	0	16252	
844	0	16302	
845	0	16312	
846	0	16248	
847	0	16192	
848	0	16128	
849	0	16089	
850	0	16000	
851	0	15966	
852	0	15836	
853	0	15889	
854	0	15888	
855	0	15821	
856	0	15790	
857	0	15828	
858	0	15844	
859	0	15802	
860	0	15808	
861	0	15849	
862	0	15845	
863	0	15886	
864	0	15886	
865	0	15857	
866	0	15848	
867	0	15780	
868	0	15714	
869	0	15710	
870	0	15660	
871	0	15566	
872	0	15497	
873	0	15508	
874	0	15505	
875	0	15481	
876	0	15486	
877	0	15457	
878	0	15426	
879	0	15448	
880	0	15402	
881	0	15460	
882	0	15470	
883	0	15412	
884	0	15412	
885	0	15344	
886	0	15328	
887	0	15284	
888	0	15190	
889	0	15160	
890	0	15092	
891	0	14985	
892	0	14912	
893	0	14934	
894	0	14976	
895	0	14940	
896	0	14871	
897	0	14818	
898	0	14816	
899	0	14800	
900	0	14798	
901	0	14837	
902	0	14863	
903	0	14800	
904	0	14869	
905	0	14852	
906	0	14897	
907	0	14802	
908	0	14772	
909	0	14685	
910	0	14596	
911	0	14582	
912	0	14522	
913	0	14558	
914	0	14519	
915	0	14500	
916	0	14484	
917	0	14426	
918	0	14474	
919	0	14473	
920	0	14496	
921	0	14557	
922	0	14612	
923	0	14660	
924	0	14694	
925	0	14749	
926	0	14828	
927	0	14801	
928	0	14829	
929	0	14900	
930	0	14996	
931	0	15032	
932	0	15144	
933	0	15394	
934	0	15596	
935	0	15850	
936	0	16120	
937	0	16420	
938	0	16737	
939	0	17140	
940	0	17585	
941	0	18084	
942	0	18568	
943	0	19036	
944	0	19582	
945	0	20102	
946	0	20677	
947	0	21232	
948	0	21752	
949	0	22356	
950	0	22960	
951	0	23544	
952	0	24143	
953	0	24808	
954	0	25456	
955	0	26150	
956	0	26840	
957	0	27516	
958	0	28218	
959	0	28929	
960	0	29604	
961	0	30357	
962	0	31034	
963	0	31768	
964	0	32448	
965	0	33104	
966	0	33786	
967	0	34416	
968	0	34992	
969	0	35568	
970	0	36158	
971	0	36732	
972	0	37272	
973	0	37860	
974	0	38480	
975	0	39017	
976	0	39545	
977	0	40049	
978	0	40656	
979	0	41088	
980	0	41632	
981	0	42208	
982	0	42728	
983	0	43228	
984	0	43653	
985	0	44088	
986	0	44504	
987	0	44860	
988	0	45216	
989	0	45628	
990	0	45966	
991	0	46234	
992	0	46620	
993	0	46992	
994	0	47304	
995	0	47632	
996	0	47944	
997	0	48252	
998	0	48597	
999	0	48896	
1000	0	49184	
1001	0	49480	
1002	0	49792	
1003	0	50080	
1004	0	50368	
1005	0	50604	
1006	0	50792	
1007	0	50970	
1008	0	51108	
1009	0	51289	
1010	0	51456	
1011	0	51584	
1012	0	51764	
1013	0	51920	
1014	0	52128	
1015	0	52249	
1016	0	52337	
1017	0	52508	
1018	0	52640	
1019	0	52776	
1020	0	52847	
1021	0	53024	
1022	0	53132	
1023	0	53216	
1024	0	53338	
1025	0	53388	
1026	0	53440	
1027	0	53452	
1028	0	53496	
1029	0	53472	
1030	0	53448	
1031	0	53370	
1032	0	53376	
1033	0	53360	
1034	0	53317	
1035	0	53324	
1036	0	53306	
1037	0	53300	
1038	0	53242	
1039	0	53160	
1040	0	53132	
1041	0	53144	
1042	0	53132	
1043	0	53088	
1044	0	53016	
1045	0	52946	
1046	0	52800	
1047	0	52676	
1048	0	52508	
1049	0	52308	
1050	0	52201	
1051	0	52023	
1052	0	51924	
1053	0	51754	
1054	0	51596	
1055	0	51381	
1056	0	51255	
1057	0	51116	
1058	0	50976	
1059	0	50800	
1060	0	50656	
1061	0	50528	
1062	0	50380	
1063	0	50172	
1064	0	50064	
1065	0	49844	
1066	0	49612	
1067	0	49484	
1068	0	49284	
1069	0	49024	
1070	0	48802	
1071	0	48512	
1072	0	48288	
1073	0	48112	
1074	0	47908	
1075	0	47725	
1076	0	47496	
1077	0	47285	
1078	0	47160	
1079	0	46944	
1080	0	46657	
1081	0	46508	
1082	0	46350	
1083	0	46128	
1084	0	45932	
1085	0	45740	
1086	0	45458	
1087	0	45252	
1088	0	44960	
1089	0	44700	
1090	0	44520	
1091	0	44172	
1092	0	43996	
1093	0	43776	
1094	0	43596	
1095	0	43360	
1096	0	43164	
1097	0	42944	
1098	0	42760	
1099	0	42596	
1100	0	42392	
1101	0	42220	
1102	0	42020	
1103	0	41893	
1104	0	41704	
1105	0	41482	
1106	0	41288	
1107	0	41079	
1108	0	40852	
1109	0	40564	
1110	0	40386	
1111	0	40170	
1112	0	39991	
1113	0	39828	
1114	0	39665	
1115	0	39488	
1116	0	39356	
1117	0	39176	
1118	0	39012	
1119	0	38836	
1120	0	38660	
1121	0	38576	
1122	0	38429	
1123	0	38284	
1124	0	38100	
1125	0	37996	
1126	0	37848	
1127	0	37602	
1128	0	37372	
1129	0	37184	
1130	0	37025	
1131	0	36881	
1132	0	36700	
1133	0	36540	
1134	0	36448	
1135	0	36328	
1136	0	36232	
1137	0	36130	
1138	0	35988	
1139	0	35832	
1140	0	35712	
1141	0	35636	
1142	0	35572	
1143	0	35392	
1144	0	35300	
1145	0	35166	
1146	0	35039	
1147	0	34837	
1148	0	34677	
1149	0	34476	
1150	0	34362	
1151	0	34158	
1152	0	34060	
1153	0	33903	
1154	0	33804	
1155	0	33664	
1156	0	33500	
1157	0	33400	
1158	0	33296	
1159	0	33176	
1160	0	33033	
1161	0	32921	
1162	0	32860	
1163	0	32780	
1164	0	32632	
1165	0	32544	
1166	0	32384	
1167	0	32234	
1168	0	32050	
1169	0	31876	
1170	0	31744	
1171	0	31540	
1172	0	31412	
1173	0	31248	
1174	0	31148	
1175	0	31052	
1176	0	30882	
1177	0	30840	
1178	0	30732	
1179	0	30631	
1180	0	30520	
1181	0	30498	
1182	0	30436	
1183	0	30328	
1184	0	30216	
1185	0	30130	
1186	0	29964	
1187	0	29876	
1188	0	29744	
1189	0	29596	
1190	0	29489	
1191	0	29412	
1192	0	29272	
1193	0	29236	
1194	0	29136	
1195	0	29056	
1196	0	29004	
1197	0	28961	
1198	0	28901	
1199	0	28868	
1200	0	28808	
1201	0	28841	
1202	0	28849	
1203	0	28837	
1204	0	28785	
1205	0	28712	
1206	0	28688	
1207	0	28608	
1208	0	28558	
1209	0	28472	
1210	0	28462	
1211	0	28408	
1212	0	28320	
1213	0	28361	
1214	0	28332	
1215	0	28351	
1216	0	28374	
1217	0	28360	
1218	0	28412	
1219	0	28466	
1220	0	28468	
1221	0	28504	
1222	0	28557	
1223	0	28580	
1224	0	28628	
1225	0	28608	
1226	0	28616	
1227	0	28669	
1228	0	28664	
1229	0	28625	
1230	0	28661	
1231	0	28724	
1232	0	28720	
1233	0	28762	
1234	0	28764	
1235	0	28800	
1236	0	28828	
1237	0	28954	
1238	0	29040	
1239	0	29104	
1240	0	29101	
1241	0	29193	
1242	0	29294	
1243	0	29392	
1244	0	29404	
1245	0	29504	
1246	0	29564	
1247	0	29578	
1248	0	29564	
1249	0	29564	
1250	0	29717	
1251	0	29664	
1252	0	29748	
1253	0	29844	
1254	0	29887	
1255	0	29924	
1256	0	29944	
1257	0	29992	
1258	0	30102	
1259	0	30208	
1260	0	30284	
1261	0	30364	
1262	0	30476	
1263	0	30540	
1264	0	30637	
1265	0	30688	
1266	0	30680	
1267	0	30818	
1268	0	30792	
1269	0	30866	
1270	0	30940	
1271	0	30976	
1272	0	30940	
1273	0	30984	
1274	0	31024	
1275	0	31100	
1276	0	31205	
1277	0	31262	
1278	0	31326	
1279	0	31412	
1280	0	31448	
1281	0	31536	
1282	0	31658	
1283	0	31704	
1284	0	31689	
1285	0	31808	
1286	0	31840	
1287	0	31818	
1288	0	31816	
1289	0	31800	
1290	0	31878	
1291	0	31869	
1292	0	31916	
1293	0	31958	
1294	0	31904	
1295	0	31916	
1296	0	31984	
1297	0	32024	
1298	0	32052	
1299	0	32132	
1300	0	32130	
1301	0	32197	
1302	0	32252	
1303	0	32244	
1304	0	32340	
1305	0	32336	
1306	0	32288	
1307	0	32293	
1308	0	32276	
1309	0	32225	
1310	0	32236	
1311	0	32191	
1312	0	32162	
1313	0	32124	
1314	0	32125	
1315	0	32148	
1316	0	32143	
1317	0	32116	
1318	0	32145	
1319	0	32174	
1320	0	32132	
1321	0	32152	
1322	0	32157	
1323	0	32188	
1324	0	32146	
1325	0	32082	
1326	0	32066	
1327	0	32000	
1328	0	31944	
1329	0	31854	
1330	0	31828	
1331	0	31748	
1332	0	31681	
1333	0	31620	
1334	0	31653	
1335	0	31608	
1336	0	31544	
1337	0	31520	
1338	0	31488	
1339	0	31460	
1340	0	31424	
1341	0	31424	
1342	0	31432	
1343	0	31380	
1344	0	31328	
1345	0	31292	
1346	0	31224	
1347	0	31152	
1348	0	31060	
1349	0	30928	
1350	0	30889	
1351	0	30808	
1352	0	30768	
1353	0	30700	
1354	0	30648	
1355	0	30560	
1356	0	30460	
1357	0	30440	
1358	0	30396	
1359	0	30381	
1360	0	30329	
1361	0	30304	
1362	0	30327	
1363	0	30305	
1364	0	30286	
1365	0	30156	
1366	0	30069	
1367	0	30028	
1368	0	29872	
1369	0	29758	
1370	0	29678	
1371	0	29613	
1372	0	29464	
1373	0	29441	
1374	0	29348	
1375	0	29296	
1376	0	29188	
1377	0	29104	
1378	0	29108	
1379	0	29060	
1380	0	28944	
1381	0	28948	
1382	0	28904	
1383	0	28826	
1384	0	28796	
1385	0	28720	
1386	0	28644	
1387	0	28501	
1388	0	28415	
1389	0	28264	
1390	0	28228	
1391	0	28096	
1392	0	27992	
1393	0	27952	
1394	0	27822	
1395	0	27784	
1396	0	27728	
1397	0	27628	
1398	0	27612	
1399	0	27478	
1400	0	27386	
1401	0	27370	
1402	0	27316	
1403	0	27269	
1404	0	27232	
1405	0	27124	
1406	0	27038	
1407	0	26984	
1408	0	26838	
1409	0	26676	
1410	0	26604	
1411	0	26560	
1412	0	26372	
1413	0	26337	
1414	0	26276	
1415	0	26208	
1416	0	26112	
1417	0	26080	
1418	0	26012	
1419	0	25900	
1420	0	25840	
1421	0	25797	
1422	0	25756	
1423	0	25713	
1424	0	25612	
1425	0	25612	
1426	0	25514	
1427	0	25392	
1428	0	25246	
1429	0	25162	
1430	0	25128	
1431	0	24988	
1432	0	24933	
1433	0	24784	
1434	0	24716	
1435	0	24660	
1436	0	24556	
1437	0	24490	
1438	0	24442	
1439	0	24389	
1440	0	24288	
1441	0	24306	
1442	0	24256	
1443	0	24278	
1444	0	24186	
1445	0	24162	
1446	0	24144	
1447	0	24036	
1448	0	23980	
1449	0	23849	
1450	0	23704	
1451	0	23700	
1452	0	23544	
1453	0	23520	
1454	0	23434	
1455	0	23352	
1456	0	23282	
1457	0	23224	
1458	0	23196	
1459	0	23152	
1460	0	23090	
1461	0	23092	
1462	0	23048	
1463	0	23002	
1464	0	22994	
1465	0	22912	
1466	0	22883	
1467	0	22808	
1468	0	22652	
1469	0	22550	
1470	0	22528	
1471	0	22452	
1472	0	22370	
1473	0	22254	
1474	0	22280	
1475	0	22229	
1476	0	22099	
1477	0	22033	
1478	0	22017	
1479	0	21946	
1480	0	21925	
1481	0	21944	
1482	0	21925	
1483	0	21844	
1484	0	21828	
1485	0	21782	
1486	0	21666	
1487	0	21676	
1488	0	21601	
1489	0	21460	
1490	0	21408	
1491	0	21368	
1492	0	21253	
1493	0	21193	
1494	0	21147	
1495	0	21104	
1496	0	21018	
1497	0	20968	
1498	0	20958	
1499	0	20966	
1500	0	20897	
1501	0	20940	
1502	0	20936	
1503	0	20902	
1504	0	20884	
1505	0	20828	
1506	0	20781	
1507	0	20756	
1508	0	20644	
1509	0	20616	
1510	0	20553	
1511	0	20457	
1512	0	20416	
1513	0	20337	
1514	0	20334	
1515	0	20299	
1516	0	20290	
1517	0	20269	
1518	0	20280	
1519	0	20300	
1520	0	20264	
1521	0	20237	
1522	0	20277	
1523	0	20289	
1524	0	20196	
1525	0	20222	
1526	0	20209	
1527	0	20148	
1528	0	20085	
1529	0	19977	
1530	0	19968	
1531	0	19879	
1532	0	19866	
1533	0	19832	
1534	0	19844	
1535	0	19764	
1536	0	19790	
1537	0	19762	
1538	0	19752	
1539	0	19739	
1540	0	19741	
1541	0	19744	
1542	0	19784	
1543	0	19781	
1544	0	19813	
1545	0	19729	
1546	0	19692	
1547	0	19698	
1548	0	19648	
1549	0	19550	
1550	0	19553	
1551	0	19468	
1552	0	19435	
1553	0	19421	
1554	0	19373	
1555	0	19403	
1556	0	19396	
1557	0	19324	
1558	0	19329	
1559	0	19301	
1560	0	19282	
1561	0	19392	
1562	0	19345	
1563	0	19360	
1564	0	19298	
1565	0	19262	
1566	0	19256	
1567	0	19208	
1568	0	19190	
1569	0	19074	
1570	0	19062	
1571	0	18971	
1572	0	18916	
1573	0	18828	
1574	0	18828	
1575	0	18820	
1576	0	18768	
1577	0	18729	
1578	0	18747	
1579	0	18733	
1580	0	18680	
1581	0	18706	
1582	0	18749	
1583	0	18714	
1584	0	18759	
1585	0	18770	
1586	0	18732	
1587	0	18699	
1588	0	18612	
1589	0	18612	
1590	0	18520	
1591	0	18484	
1592	0	18461	
1593	0	18473	
1594	0	18424	
1595	0	18464	
1596	0	18520	
1597	0	18484	
1598	0	18570	
1599	0	18600	
1600	0	18661	
1601	0	18756	
1602	0	18928	
1603	0	19046	
1604	0	19236	
1605	0	19370	
1606	0	19556	
1607	0	19762	
1608	0	19912	
1609	0	20100	
1610	0	20444	
1611	0	20660	
1612	0	20988	
1613	0	21313	
1614	0	21664	
1615	0	22073	
1616	0	22558	
1617	0	23008	
1618	0	23477	
1619	0	23996	
1620	0	24563	
1621	0	25082	
1622	0	25685	
1623	0	26304	
1624	0	26880	
1625	0	27456	
1626	0	28066	
1627	0	28688	
1628	0	29225	
1629	0	29788	
1630	0	30453	
1631	0	31072	
1632	0	31624	
1633	0	32208	
1634	0	32908	
1635	0	33484	
1636	0	34122	
1637	0	34720	
1638	0	35328	
1639	0	35916	
1640	0	36532	
1641	0	37182	
1642	0	37788	
1643	0	38430	
1644	0	38974	
1645	0	39552	
1646	0	40059	
1647	0	40640	
1648	0	41044	
1649	0	41542	
1650	0	42009	
1651	0	42496	
1652	0	42897	
1653	0	43332	
1654	0	43848	
1655	0	44280	
1656	0	44725	
1657	0	45146	
1658	0	45598	
1659	0	46000	
1660	0	46390	
1661	0	46836	
1662	0	47272	
1663	0	47660	
1664	0	48024	
1665	0	48356	
1666	0	48680	
1667	0	48986	
1668	0	49272	
1669	0	49481	
1670	0	49802	
1671	0	50092	
1672	0	50356	
1673	0	50628	
1674	0	50845	
1675	0	51056	
1676	0	51296	
1677	0	51546	
1678	0	51800	
1679	0	52024	
1680	0	52220	
1681	0	52446	
1682	0	52708	
1683	0	52896	
1684	0	53096	
1685	0	53242	
1686	0	53456	
1687	0	53572	
1688	0	53653	
1689	0	53744	
1690	0	53847	
1691	0	53948	
1692	0	54016	
1693	0	54056	
1694	0	54156	
1695	0	54209	
1696	0	54304	
1697	0	54400	
1698	0	54436	
1699	0	54504	
1700	0	54552	
1701	0	54616	
1702	0	54644	
1703	0	54676	
1704	0	54704	
1705	0	54672	
1706	0	54692	
1707	0	54676	
1708	0	54578	
1709	0	54504	
1710	0	54484	
1711	0	54392	
1712	0	54320	
1713	0	54224	
1714	0	54169	
1715	0	54064	
1716	0	53992	
1717	0	53928	
1718	0	53868	
1719	0	53772	
1720	0	53676	
1721	0	53624	
1722	0	53584	
1723	0	53484	
1724	0	53348	
1725	0	53240	
1726	0	53048	
1727	0	52916	
1728	0	52719	
1729	0	52604	
1730	0	52329	
1731	0	52192	
1732	0	51964	
1733	0	51788	
1734	0	51639	
1735	0	51456	
1736	0	51264	
1737	0	51082	
1738	0	50964	
1739	0	50848	
1740	0	50644	
1741	0	50437	
1742	0	50324	
1743	0	50198	
1744	0	49964	
1745	0	49788	
1746	0	49608	
1747	0	49344	
1748	0	49104	
1749	0	48856	
1750	0	48623	
1751	0	48396	
1752	0	48204	
1753	0	47900	
1754	0	47732	
1755	0	47568	
1756	0	47356	
1757	0	47152	
1758	0	46874	
1759	0	46741	
1760	0	46496	
1761	0	46321	
1762	0	46174	
1763	0	45984	
1764	0	45792	
1765	0	45562	
1766	0	45368	
1767	0	45141	
1768	0	44844	
1769	0	44644	
1770	0	44432	
1771	0	44228	
1772	0	43962	
1773	0	43836	
1774	0	43668	
1775	0	43452	
1776	0	43283	
1777	0	43108	
1778	0	42910	
1779	0	42773	
1780	0	42576	
1781	0	42449	
1782	0	42344	
1783	0	42124	
1784	0	41993	
1785	0	41796	
1786	0	41632	
1787	0	41416	
1788	0	41156	
1789	0	40940	
1790	0	40741	
1791	0	40532	
1792	0	40341	
1793	0	40130	
1794	0	39996	
1795	0	39816	
1796	0	39676	
1797	0	39516	
1798	0	39388	
1799	0	39280	
1800	0	39108	
1801	0	39004	
1802	0	38922	
1803	0	38768	
1804	0	38633	
1805	0	38458	
1806	0	38320	
1807	0	38120	
1808	0	37948	
1809	0	37736	
1810	0	37584	
1811	0	37402	
1812	0	37248	
1813	0	37191	
1814	0	36978	
1815	0	36870	
1816	0	36744	
1817	0	36608	
1818	0	36488	
1819	0	36340	
1820	0	36212	
1821	0	36100	
1822	0	35996	
1823	0	35928	
1824	0	35849	
1825	0	35716	
1826	0	35596	
1827	0	35460	
1828	0	35284	
1829	0	35128	
1830	0	34958	
1831	0	34796	
1832	0	34604	
1833	0	34478	
1834	0	34352	
1835	0	34228	
1836	0	34108	
1837	0	33952	
1838	0	33845	
1839	0	33752	
1840	0	33609	
1841	0	33493	
1842	0	33418	
1843	0	33368	
1844	0	33288	
1845	0	33204	
1846	0	33056	
1847	0	32864	
1848	0	32751	
1849	0	32537	
1850	0	32452	
1851	0	32256	
1852	0	32125	
1853	0	32025	
1854	0	31949	
1855	0	31860	
1856	0	31748	
1857	0	31656	
1858	0	31532	
1859	0	31432	
1860	0	31376	
1861	0	31317	
1862	0	31312	
1863	0	31241	
1864	0	31200	
1865	0	31180	
1866	0	31025	
1867	0	30940	
1868	0	30824	
1869	0	30738	
1870	0	30636	
1871	0	30554	
1872	0	30488	
1873	0	30437	
1874	0	30356	
1875	0	30294	
1876	0	30281	
1877	0	30220	
1878	0	30185	
1879	0	30173	
1880	0	30152	
1881	0	30173	
1882	0	30184	
1883	0	30164	
1884	0	30165	
1885	0	30168	
1886	0	30124	
1887	0	30156	
1888	0	30124	
1889	0	30029	
1890	0	30031	
1891	0	29976	
1892	0	29917	
1893	0	29960	
1894	0	30004	
1895	0	29978	
1896	0	29958	
1897	0	29974	
1898	0	30037	
1899	0	30026	
1900	0	30058	
1901	0	30088	
1902	0	30209	
1903	0	30248	
1904	0	30290	
1905	0	30328	
1906	0	30352	
1907	0	30410	
1908	0	30324	
1909	0	30369	
1910	0	30370	
1911	0	30396	
1912	0	30396	
1913	0	30436	
1914	0	30464	
1915	0	30452	
1916	0	30525	
1917	0	30564	
1918	0	30618	
1919	0	30754	
1920	0	30844	
1921	0	30880	
1922	0	30984	
1923	0	31024	
1924	0	31113	
1925	0	31193	
1926	0	31272	
1927	0	31261	
1928	0	31336	
1929	0	31330	
1930	0	31272	
1931	0	31384	
1932	0	31404	
1933	0	31448	
1934	0	31504	
1935	0	31536	
1936	0	31674	
1937	0	31700	
1938	0	31788	
1939	0	31833	
1940	0	31856	
1941	0	31972	
1942	0	32099	
1943	0	32176	
1944	0	32218	
1945	0	32377	
1946	0	32328	
1947	0	32375	
1948	0	32476	
1949	0	32484	
1950	0	32480	
1951	0	32506	
1952	0	32556	
1953	0	32526	
1954	0	32572	
1955	0	32588	
1956	0	32594	
1957	0	32704	
1958	0	32732	
1959	0	32802	
1960	0	32860	
1961	0	32956	
1962	0	33040	
1963	0	33084	
1964	0	33104	
1965	0	33162	
1966	0	33208	
1967	0	33208	
1968	0	33164	
1969	0	33193	
1970	0	33186	
1971	0	33117	
1972	0	33142	
1973	0	33125	
1974	0	33189	
1975	0	33218	
1976	0	33184	
1977	0	33224	
1978	0	33210	
1979	0	33278	
1980	0	33308	
1981	0	33340	
1982	0	33356	
1983	0	33432	
1984	0	33500	
1985	0	33480	
1986	0	33422	
1987	0	33401	
1988	0	33384	
1989	0	33308	
1990	0	33268	
1991	0	33308	
1992	0	33252	
1993	0	33200	
1994	0	33186	
1995	0	33152	
1996	0	33140	
1997	0	33128	
1998	0	33120	
1999	0	33114	
2000	0	33072	
2001	0	33101	
2002	0	33141	
2003	0	33100	
2004	0	33126	
2005	0	33114	
2006	0	33024	
2007	0	33056	
2008	0	32990	
2009	0	32874	
2010	0	32764	
2011	0	32788	
2012	0	32708	
2013	0	32652	
2014	0	32560	
2015	0	32529	
2016	0	32485	
2017	0	32437	
2018	0	32452	
2019	0	32386	
2020	0	32367	
2021	0	32289	
2022	0	32340	
2023	0	32304	
2024	0	32224	
2025	0	32176	
2026	0	32134	
2027	0	32115	
2028	0	32039	
2029	0	31908	
2030	0	31816	
2031	0	31750	
2032	0	31624	
2033	0	31613	
2034	0	31532	
2035	0	31436	
2036	0	31393	
2037	0	31358	
2038	0	31270	
2039	0	31300	
2040	0	31246	
2041	0	31157	
2042	0	31127	
2043	0	31089	
2044	0	31034	
2045	0	30978	
2046	0	30924	
2047	0	30880	
2048	0	30740	
2049	0	30676	
2050	0	30564	
2051	0	30423	
2052	0	30266	
2053	0	30220	
2054	0	30177	
2055	0	30106	
2056	0	30048	
2057	0	29980	
2058	0	29888	
2059	0	29816	
2060	0	29718	
2061	0	29666	
2062	0	29630	
2063	0	29566	
2064	0	29533	
2065	0	29456	
2066	0	29396	
2067	0	29292	
2068	0	29180	
2069	0	29029	
2070	0	28908	
2071	0	28816	
2072	0	28682	
2073	0	28628	
2074	0	28563	
2075	0	28422	
2076	0	28392	
2077	0	28279	
2078	0	28193	
2079	0	28148	
2080	0	28026	
2081	0	28008	
2082	0	27948	
2083	0	27964	
2084	0	27884	
2085	0	27840	
2086	0	27765	
2087	0	27672	
2088	0	27505	
2089	0	27424	
2090	0	27325	
2091	0	27130	
2092	0	27008	
2093	0	26892	
2094	0	26886	
2095	0	26748	
2096	0	26710	
2097	0	26562	
2098	0	26508	
2099	0	26489	
2100	0	26427	
2101	0	26365	
2102	0	26288	
2103	0	26239	
2104	0	26214	
2105	0	26149	
2106	0	26040	
2107	0	25944	
2108	0	25845	
2109	0	25674	
2110	0	25594	
2111	0	25496	
2112	0	25420	
2113	0	25284	
2114	0	25184	
2115	0	25158	
2116	0	25082	
2117	0	25018	
2118	0	24932	
2119	0	24864	
2120	0	24796	
2121	0	24784	
2122	0	24736	
2123	0	24704	
2124	0	24668	
2125	0	24644	
2126	0	24540	
2127	0	24444	
2128	0	24356	
2129	0	24220	
2130	0	24140	
2131	0	24048	
2132	0	23959	
2133	0	23840	
2134	0	23836	
2135	0	23637	
2136	0	23650	
2137	0	23550	
2138	0	23484	
2139	0	23484	
2140	0	23397	
2141	0	23384	
2142	0	23362	
2143	0	23328	
2144	0	23296	
2145	0	23285	
2146	0	23200	
2147	0	23160	
2148	0	23068	
2149	0	22922	
2150	0	22872	
2151	0	22752	
2152	0	22660	
2153	0	22558	
2154	0	22462	
2155	0	22472	
2156	0	22383	
2157	0	22368	
2158	0	22301	
2159	0	22284	
2160	0	22254	
2161	0	22204	
2162	0	22164	
2163	0	22165	
2164	0	22113	
2165	0	22070	
2166	0	22036	
2167	0	21916	
2168	0	21845	
2169	0	21765	
2170	0	21723	
2171	0	21561	
2172	0	21548	
2173	0	21476	
2174	0	21414	
2175	0	21415	
2176	0	21361	
2177	0	21268	
2178	0	21232	
2179	0	21192	
2180	0	21196	
2181	0	21192	
2182	0	21205	
2183	0	21217	
2184	0	21189	
2185	0	21168	
2186	0	21094	
2187	0	21104	
2188	0	21056	
2189	0	20952	
2190	0	20909	
2191	0	20876	
2192	0	20849	
2193	0	20752	
2194	0	20710	
2195	0	20722	
2196	0	20677	
2197	0	20673	
2198	0	20625	
2199	0	20632	
2200	0	20601	
2201	0	20560	
2202	0	20560	
2203	0	20616	
2204	0	20552	
2205	0	20496	
2206	0	20488	
2207	0	20420	
2208	0	20368	
2209	0	20322	
2210	0	20336	
2211	0	20268	
2212	0	20208	
2213	0	20124	
2214	0	20104	
2215	0	20120	
2216	0	20109	
2217	0	20064	
2218	0	20016	
2219	0	20032	
2220	0	20052	
2221	0	20040	
2222	0	20028	
2223	0	20088	
2224	0	20071	
2225	0	20038	
2226	0	20050	
2227	0	19992	
2228	0	19944	
2229	0	19886	
2230	0	19840	
2231	0	19800	
2232	0	19773	
2233	0	19668	
2234	0	19644	
2235	0	19673	
2236	0	19614	
2237	0	19618	
2238	0	19594	
2239	0	19573	
2240	0	19555	
2241	0	19553	
2242	0	19594	
2243	0	19605	
2244	0	19616	
2245	0	19564	
2246	0	19567	
2247	0	19518	
2248	0	19404	
2249	0	19364	
2250	0	19299	
2251	0	19232	
2252	0	19179	
2253	0	19128	
2254	0	19110	
2255	0	19084	
2256	0	19024	
2257	0	19008	
2258	0	18948	
2259	0	18988	
2260	0	18992	
2261	0	19010	
2262	0	19021	
2263	0	19049	
2264	0	19058	
2265	0	19061	
2266	0	19075	
2267	0	19085	
2268	0	19028	
2269	0	18924	
2270	0	18924	
2271	0	19002	
2272	0	19002	
2273	0	19004	
2274	0	19058	
2275	0	19122	
2276	0	19200	
2277	0	19300	
2278	0	19445	
2279	0	19528	
2280	0	19708	
2281	0	19940	
2282	0	20190	
2283	0	20491	
2284	0	20732	
2285	0	21028	
2286	0	21335	
2287	0	21600	
2288	0	21949	
2289	0	22266	
2290	0	22633	
2291	0	23060	
2292	0	23484	
2293	0	23892	
2294	0	24402	
2295	0	24920	
2296	0	25386	
2297	0	25936	
2298	0	26532	
2299	0	27156	
2300	0	27732	
2301	0	28344	
2302	0	28954	
2303	0	29608	
2304	0	30200	
2305	0	30748	
2306	0	31414	
2307	0	32064	
2308	0	32565	
2309	0	33160	
2310	0	33676	
2311	0	34256	
2312	0	34792	
2313	0	35380	
2314	0	35936	
2315	0	36528	
2316	0	37130	
2317	0	37705	
2318	0	38202	
2319	0	38816	
2320	0	39360	
2321	0	39840	
2322	0	40369	
2323	0	40944	
2324	0	41496	
2325	0	41994	
2326	0	42446	
2327	0	42934	
2328	0	43348	
2329	0	43732	
2330	0	44096	
2331	0	44526	
2332	0	44904	
2333	0	45328	
2334	0	45748	
2335	0	46168	
2336	0	46480	
2337	0	46880	
2338	0	47276	
2339	0	47600	
2340	0	47956	
2341	0	48284	
2342	0	48653	
2343	0	49016	
2344	0	49340	
2345	0	49584	
2346	0	49880	
2347	0	50160	
2348	0	50421	
2349	0	50608	
2350	0	50832	
2351	0	51082	
2352	0	51264	
2353	0	51477	
2354	0	51648	
2355	0	51880	
2356	0	52016	
2357	0	52192	
2358	0	52392	
2359	0	52600	
2360	0	52784	
2361	0	52948	
2362	0	53096	
2363	0	53292	
2364	0	53418	
2365	0	53540	
2366	0	53584	
2367	0	53744	
2368	0	53858	
2369	0	53884	
2370	0	53908	
2371	0	53960	
2372	0	53908	
2373	0	53940	
2374	0	54026	
2375	0	54080	
2376	0	54042	
2377	0	54060	
2378	0	54104	
2379	0	54144	
2380	0	54164	
2381	0	54136	
2382	0	54180	
2383	0	54192	
2384	0	54097	
2385	0	54152	
2386	0	54100	
2387	0	54008	
2388	0	53914	
2389	0	53845	
2390	0	53760	
2391	0	53624	
2392	0	53504	
2393	0	53333	
2394	0	53280	
2395	0	53208	
2396	0	53040	
2397	0	52909	
2398	0	52720	
2399	0	52648	
2400	0	52576	
2401	0	52456	
2402	0	52376	
2403	0	52316	
2404	0	52106	
2405	0	51932	
2406	0	51812	
2407	0	51648	
2408	0	51457	
2409	0	51272	
2410	0	51032	
2411	0	50876	
2412	0	50660	
2413	0	50388	
2414	0	50276	
2415	0	50124	
2416	0	49890	
2417	0	49669	
2418	0	49468	
2419	0	49288	
2420	0	49120	
2421	0	48914	
2422	0	48844	
2423	0	48680	
2424	0	48496	
2425	0	48260	
2426	0	48036	
2427	0	47795	
2428	0	47518	
2429	0	47318	
2430	0	47080	
2431	0	46892	
2432	0	46644	
2433	0	46366	
2434	0	46144	
2435	0	45952	
2436	0	45727	
2437	0	45538	
2438	0	45333	
2439	0	45122	
2440	0	44962	
2441	0	44770	
2442	0	44645	
2443	0	44482	
2444	0	44288	
2445	0	44080	
2446	0	43861	
2447	0	43628	
2448	0	43384	
2449	0	43117	
2450	0	42944	
2451	0	42741	
2452	0	42528	
2453	0	42321	
2454	0	42116	
2455	0	41892	
2456	0	41732	
2457	0	41540	
2458	0	41372	
2459	0	41233	
2460	0	41088	
2461	0	40900	
2462	0	40746	
2463	0	40609	
2464	0	40454	
2465	0	40302	
2466	0	40129	
2467	0	39984	
2468	0	39760	
2469	0	39536	
2470	0	39380	
2471	0	39184	
2472	0	38964	
2473	0	38792	
2474	0	38638	
2475	0	38496	
2476	0	38284	
2477	0	38165	
2478	0	37984	
2479	0	37863	
2480	0	37764	
2481	0	37622	
2482	0	37440	
2483	0	37357	
2484	0	37216	
2485	0	37120	
2486	0	36993	
2487	0	36841	
2488	0	36672	
2489	0	36521	
2490	0	36352	
2491	0	36170	
2492	0	36008	
2493	0	35831	
2494	0	35676	
2495	0	35624	
2496	0	35388	
2497	0	35276	
2498	0	35121	
2499	0	34993	
2500	0	34874	
2501	0	34672	
2502	0	34592	
2503	0	34472	
2504	0	34355	
2505	0	34298	
2506	0	34128	
2507	0	34004	
2508	0	33778	
2509	0	33614	
2510	0	33448	
2511	0	33309	
2512	0	33189	
2513	0	32961	
2514	0	32864	
2515	0	32704	
2516	0	32584	
2517	0	32449	
2518	0	32334	
2519	0	32200	
2520	0	32112	
2521	0	31956	
2522	0	31829	
2523	0	31769	
2524	0	31673	
2525	0	31577	
2526	0	31441	
2527	0	31296	
2528	0	31175	
2529	0	31024	
2530	0	30831	
2531	0	30772	
2532	0	30656	
2533	0	30544	
2534	0	30475	
2535	0	30397	
2536	0	30314	
2537	0	30234	
2538	0	30102	
2539	0	30028	
2540	0	30034	
2541	0	29976	
2542	0	29948	
2543	0	29924	
2544	0	29870	
2545	0	29804	
2546	0	29768	
2547	0	29684	
2548	0	29650	
2549	0	29557	
2550	0	29474	
2551	0	29421	
2552	0	29366	
2553	0	29308	
2554	0	29324	
2555	0	29294	
2556	0	29265	
2557	0	29264	
2558	0	29224	
2559	0	29224	
2560	0	29226	
2561	0	29224	
2562	0	29280	
2563	0	29306	
2564	0	29384	
2565	0	29376	
2566	0	29390	
2567	0	29376	
2568	0	29360	
2569	0	29316	
2570	0	29282	
2571	0	29340	
2572	0	29388	
2573	0	29452	
2574	0	29446	
2575	0	29484	
2576	0	29516	
2577	0	29516	
2578	0	29592	
2579	0	29666	
2580	0	29732	
2581	0	29754	
2582	0	29892	
2583	0	29988	
2584	0	30007	
2585	0	30080	
2586	0	30090	
2587	0	30164	
2588	0	30280	
2589	0	30280	
2590	0	30306	
2591	0	30320	
2592	0	30360	
2593	0	30330	
2594	0	30403	
2595	0	30540	
2596	0	30556	
2597	0	30658	
2598	0	30728	
2599	0	30837	
2600	0	30932	
2601	0	30986	
2602	0	31096	
2603	0	31174	
2604	0	31264	
2605	0	31326	
2606	0	31472	
2607	0	31493	
2608	0	31521	
2609	0	31570	
2610	0	31636	
2611	0	31657	
2612	0	31722	
2613	0	31704	
2614	0	31746	
2615	0	31849	
2616	0	31896	
2617	0	32012	
2618	0	32097	
2619	0	32203	
2620	0	32240	
2621	0	32352	
2622	0	32480	
2623	0	32493	
2624	0	32580	
2625	0	32654	
2626	0	32732	
2627	0	32766	
2628	0	32790	
2629	0	32824	
2630	0	32845	
2631	0	32840	
2632	0	32812	
2633	0	32858	
2634	0	32913	
2635	0	32940	
2636	0	32990	
2637	0	33024	
2638	0	33096	
2639	0	33180	
2640	0	33228	
2641	0	33216	
2642	0	33292	
2643	0	33384	
2644	0	33460	
2645	0	33445	
2646	0	33533	
2647	0	33508	
2648	0	33504	
2649	0	33488	
2650	0	33428	
2651	0	33456	
2652	0	33401	
2653	0	33396	
2654	0	33404	
2655	0	33469	
2656	0	33416	
2657	0	33452	
2658	0	33432	
2659	0	33472	
2660	0	33487	
2661	0	33471	
2662	0	33512	
2663	0	33560	
2664	0	33533	
2665	0	33580	
2666	0	33590	
2667	0	33508	
2668	0	33456	
2669	0	33428	
2670	0	33338	
2671	0	33284	
2672	0	33256	
2673	0	33216	
2674	0	33192	
2675	0	33168	
2676	0	33140	
2677	0	33064	
2678	0	33032	
2679	0	33044	
2680	0	33064	
2681	0	33024	
2682	0	33072	
2683	0	33088	
2684	0	33059	
2685	0	33096	
2686	0	32985	
2687	0	32904	
2688	0	32896	
2689	0	32804	
2690	0	32696	
2691	0	32654	
2692	0	32568	
2693	0	32490	
2694	0	32441	
2695	0	32336	
2696	0	32288	
2697	0	32250	
2698	0	32174	
2699	0	32140	
2700	0	32146	
2701	0	32076	
2702	0	32093	
2703	0	32073	
2704	0	32012	
2705	0	31983	
2706	0	31921	
2707	0	31816	
2708	0	31772	
2709	0	31677	
2710	0	31604	
2711	0	31496	
2712	0	31389	
2713	0	31304	
2714	0	31185	
2715	0	31176	
2716	0	31072	
2717	0	31028	
2718	0	30916	
2719	0	30855	
2720	0	30828	
2721	0	30720	
2722	0	30730	
2723	0	30725	
2724	0	30664	
2725	0	30636	
2726	0	30584	
2727	0	30493	
2728	0	30428	
2729	0	30276	
2730	0	30136	
2731	0	30050	
2732	0	29956	
2733	0	29850	
2734	0	29812	
2735	0	29729	
2736	0	29604	
2737	0	29532	
2738	0	29432	
2739	0	29408	
2740	0	29381	
2741	0	29296	
2742	0	29268	
2743	0	29226	
2744	0	29152	
2745	0	29096	
2746	0	29038	
2747	0	28948	
2748	0	28846	
2749	0	28696	
2750	0	28610	
2751	0	28539	
2752	0	28379	
2753	0	28332	
2754	0	28230	
2755	0	28153	
2756	0	28025	
2757	0	27951	
2758	0	27852	
2759	0	27832	
2760	0	27766	
2761	0	27712	
2762	0	27704	
2763	0	27706	
2764	0	27633	
2765	0	27584	
2766	0	27530	
2767	0	27393	
2768	0	27360	
2769	0	27215	
2770	0	27075	
2771	0	26994	
2772	0	26883	
2773	0	26792	
2774	0	26744	
2775	0	26690	
2776	0	26616	
2777	0	26526	
2778	0	26432	
2779	0	26389	
2780	0	26324	
2781	0	26220	
2782	0	26256	
2783	0	26242	
2784	0	26208	
2785	0	26121	
2786	0	26028	
2787	0	25946	
2788	0	25830	
2789	0	25732	
2790	0	25666	
2791	0	25553	
2792	0	25465	
2793	0	25396	
2794	0	25282	
2795	0	25212	
2796	0	25208	
2797	0	25144	
2798	0	25061	
2799	0	25012	
2800	0	24968	
2801	0	24936	
2802	0	24940	
2803	0	24929	
2804	0	24840	
2805	0	24870	
2806	0	24744	
2807	0	24610	
2808	0	24564	
2809	0	24534	
2810	0	24402	
2811	0	24333	
2812	0	24192	
2813	0	24151	
2814	0	24052	
2815	0	24016	
2816	0	23948	
2817	0	23888	
2818	0	23813	
2819	0	23766	
2820	0	23822	
2821	0	23736	
2822	0	23706	
2823	0	23763	
2824	0	23737	
2825	0	23668	
2826	0	23633	
2827	0	23536	
2828	0	23505	
2829	0	23424	
2830	0	23336	
2831	0	23325	
2832	0	23188	
2833	0	23052	
2834	0	23105	
2835	0	23032	
2836	0	22952	
2837	0	22852	
2838	0	22880	
2839	0	22840	
2840	0	22824	
2841	0	22755	
2842	0	22746	
2843	0	22789	
2844	0	22747	
2845	0	22800	
2846	0	22765	
2847	0	22688	
2848	0	22624	
2849	0	22500	
2850	0	22432	
2851	0	22396	
2852	0	22350	
2853	0	22252	
2854	0	22168	
2855	0	22184	
2856	0	22196	
2857	0	22145	
2858	0	22106	
2859	0	22048	
2860	0	22056	
2861	0	22074	
2862	0	22061	
2863	0	22081	
2864	0	22088	
2865	0	22093	
2866	0	22037	
2867	0	22012	
2868	0	21982	
2869	0	21860	
2870	0	21741	
2871	0	21728	
2872	0	21746	
2873	0	21604	
2874	0	21580	
2875	0	21548	
2876	0	21502	
2877	0	21496	
2878	0	21444	
2879	0	21460	
2880	0	21436	
2881	0	21376	
2882	0	21422	
2883	0	21468	
2884	0	21397	
2885	0	21356	
2886	0	21384	
2887	0	21370	
2888	0	21333	
2889	0	21220	
2890	0	21132	
2891	0	21064	
2892	0	21012	
2893	0	20924	
2894	0	20962	
2895	0	20946	
2896	0	20864	
2897	0	20826	
2898	0	20807	
2899	0	20817	
2900	0	20773	
2901	0	20792	
2902	0	20754	
2903	0	20768	
2904	0	20771	
2905	0	20762	
2906	0	20732	
2907	0	20724	
2908	0	20638	
2909	0	20553	
2910	0	20464	
2911	0	20396	
2912	0	20376	
2913	0	20289	
2914	0	20252	
2915	0	20260	
2916	0	20280	
2917	0	20260	
2918	0	20197	
2919	0	20201	
2920	0	20260	
2921	0	20173	
2922	0	20244	
2923	0	20239	
2924	0	20268	
2925	0	20320	
2926	0	20336	
2927	0	20296	
2928	0	20288	
2929	0	20336	
2930	0	20300	
2931	0	20373	
2932	0	20376	
2933	0	20461	
2934	0	20524	
2935	0	20634	
2936	0	20776	
2937	0	20996	
2938	0	21204	
2939	0	21456	
2940	0	21676	
2941	0	21926	
2942	0	22236	
2943	0	22560	
2944	0	22912	
2945	0	23322	
2946	0	23708	
2947	0	24078	
2948	0	24470	
2949	0	24872	
2950	0	25261	
2951	0	25772	
2952	0	26193	
2953	0	26744	
2954	0	27196	
2955	0	27745	
2956	0	28312	
2957	0	28824	
2958	0	29424	
2959	0	30040	
2960	0	30644	
2961	0	31188	
2962	0	31823	
2963	0	32440	
2964	0	33032	
2965	0	33642	
2966	0	34224	
2967	0	34808	
2968	0	35416	
2969	0	35960	
2970	0	36464	
2971	0	37016	
2972	0	37488	
2973	0	37996	
2974	0	38620	
2975	0	39152	
2976	0	39680	
2977	0	40148	
2978	0	40648	
2979	0	41200	
2980	0	41744	
2981	0	42216	
2982	0	42752	
2983	0	43212	
2984	0	43712	
2985	0	44144	
2986	0	44576	
2987	0	45048	
2988	0	45460	
2989	0	45812	
2990	0	46160	
2991	0	46595	
2992	0	46968	
2993	0	47256	
2994	0	47652	
2995	0	47952	
2996	0	48312	
2997	0	48640	
2998	0	49016	
2999	0	49328	
3000	0	49671	
3001	0	49896	
3002	0	50284	
3003	0	50648	
3004	0	50904	
3005	0	51188	
3006	0	51444	
3007	0	51704	
3008	0	51840	
3009	0	52074	
3010	0	52288	
3011	0	52492	
3012	0	52620	
3013	0	52801	
3014	0	52974	
3015	0	53212	
3016	0	53353	
3017	0	53472	
3018	0	53629	
3019	0	53792	
3020	0	53968	
3021	0	54076	
3022	0	54240	
3023	0	54384	
3024	0	54492	
3025	0	54608	
3026	0	54650	
3027	0	54704	
3028	0	54776	
3029	0	54784	
3030	0	54762	
3031	0	54848	
3032	0	54828	
3033	0	54848	
3034	0	54828	
3035	0	54872	
3036	0	54914	
3037	0	54828	
3038	0	54804	
3039	0	54748	
3040	0	54808	
3041	0	54721	
3042	0	54716	
3043	0	54764	
3044	0	54709	
3045	0	54656	
3046	0	54564	
3047	0	54452	
3048	0	54364	
3049	0	54272	
3050	0	54133	
3051	0	53976	
3052	0	53808	
3053	0	53676	
3054	0	53558	
3055	0	53440	
3056	0	53299	
3057	0	53184	
3058	0	52992	
3059	0	52864	
3060	0	52760	
3061	0	52577	
3062	0	52453	
3063	0	52400	
3064	0	52240	
3065	0	52050	
3066	0	51876	
3067	0	51736	
3068	0	51586	
3069	0	51332	
3070	0	51104	
3071	0	50886	
3072	0	50672	
3073	0	50448	
3074	0	50224	
3075	0	50036	
3076	0	49805	
3077	0	49636	
3078	0	49466	
3079	0	49248	
3080	0	49032	
3081	0	48833	
3082	0	48704	
3083	0	48544	
3084	0	48320	
3085	0	48168	
3086	0	47976	
3087	0	47808	
3088	0	47540	
3089	0	47272	
3090	0	46988	
3091	0	46752	
3092	0	46496	
3093	0	46324	
3094	0	46060	
3095	0	45864	
3096	0	45620	
3097	0	45436	
3098	0	45220	
3099	0	45024	
3100	0	44900	
3101	0	44652	
3102	0	44464	
3103	0	44332	
3104	0	44136	
3105	0	43984	
3106	0	43819	
3107	0	43616	
3108	0	43408	
3109	0	43168	
3110	0	42937	
3111	0	42750	
3112	0	42528	
3113	0	42268	
3114	0	42060	
3115	0	41888	
3116	0	41672	
3117	0	41512	
3118	0	41384	
3119	0	41216	
3120	0	41056	
3121	0	40927	
3122	0	40786	
3123	0	40656	
3124	0	40508	
3125	0	40320	
3126	0	40148	
3127	0	39997	
3128	0	39809	
3129	0	39605	
3130	0	39404	
3131	0	39212	
3132	0	39026	
3133	0	38799	
3134	0	38652	
3135	0	38528	
3136	0	38372	
3137	0	38185	
3138	0	38068	
3139	0	37898	
3140	0	37792	
3141	0	37664	
3142	0	37564	
3143	0	37505	
3144	0	37336	
3145	0	37212	
3146	0	37056	
3147	0	36908	
3148	0	36719	
3149	0	36556	
3150	0	36350	
3151	0	36191	
3152	0	36016	
3153	0	35824	
3154	0	35684	
3155	0	35476	
3156	0	35336	
3157	0	35192	
3158	0	35072	
3159	0	34952	
3160	0	34794	
3161	0	34696	
3162	0	34572	
3163	0	34480	
3164	0	34364	
3165	0	34264	
3166	0	34144	
3167	0	33948	
3168	0	33784	
3169	0	33600	
3170	0	33428	
3171	0	33268	
3172	0	33076	
3173	0	32952	
3174	0	32788	
3175	0	32648	
3176	0	32456	
3177	0	32324	
3178	0	32264	
3179	0	32109	
3180	0	32084	
3181	0	31936	
3182	0	31845	
3183	0	31792	
3184	0	31681	
3185	0	31653	
3186	0	31545	
3187	0	31390	
3188	0	31220	
3189	0	31097	
3190	0	31004	
3191	0	30864	
3192	0	30800	
3193	0	30732	
3194	0	30617	
3195	0	30572	
3196	0	30444	
3197	0	30420	
3198	0	30366	
3199	0	30298	
3200	0	30256	
3201	0	30250	
3202	0	30192	
3203	0	30224	
3204	0	30212	
3205	0	30216	
3206	0	30168	
3207	0	30175	
3208	0	30036	
3209	0	30022	
3210	0	29982	
3211	0	29911	
3212	0	29880	
3213	0	29862	
3214	0	29810	
3215	0	29780	
3216	0	29788	
3217	0	29808	
3218	0	29810	
3219	0	29828	
3220	0	29877	
3221	0	29924	
3222	0	29914	
3223	0	30017	
3224	0	30012	
3225	0	30115	
3226	0	30128	
3227	0	30141	
3228	0	30154	
3229	0	30110	
3230	0	30146	
3231	0	30164	
3232	0	30182	
3233	0	30168	
3234	0	30177	
3235	0	30220	
3236	0	30284	
3237	0	30362	
3238	0	30420	
3239	0	30516	
3240	0	30604	
3241	0	30668	
3242	0	30704	
3243	0	30806	
3244	0	30872	
3245	0	30990	
3246	0	31089	
3247	0	31120	
3248	0	31138	
3249	0	31155	
3250	0	31191	
3251	0	31224	
3252	0	31253	
3253	0	31309	
3254	0	31386	
3255	0	31448	
3256	0	31552	
3257	0	31572	
3258	0	31700	
3259	0	31818	
3260	0	31892	
3261	0	31960	
3262	0	32036	
3263	0	32130	
3264	0	32224	
3265	0	32312	
3266	0	32399	
3267	0	32448	
3268	0	32480	
3269	0	32456	
3270	0	32512	
3271	0	32596	
3272	0	32610	
3273	0	32660	
3274	0	32713	
3275	0	32784	
3276	0	32864	
3277	0	32906	
3278	0	32898	
3279	0	33008	
3280	0	33088	
3281	0	33120	
3282	0	33188	
3283	0	33324	
3284	0	33416	
3285	0	33428	
3286	0	33466	
3287	0	33560	
3288	0	33576	
3289	0	33553	
3290	0	33544	
3291	0	33564	
3292	0	33546	
3293	0	33596	
3294	0	33553	
3295	0	33640	
3296	0	33674	
3297	0	33649	
3298	0	33654	
3299	0	33670	
3300	0	33736	
3301	0	33764	
3302	0	33808	
3303	0	33896	
3304	0	33904	
3305	0	33954	
3306	0	33982	
3307	0	33968	
3308	0	33992	
3309	0	33924	
3310	0	33856	
3311	0	33856	
3312	0	33812	
3313	0	33752	
3314	0	33821	
3315	0	33816	
3316	0	33780	
3317	0	33716	
3318	0	33700	
3319	0	33722	
3320	0	33712	
3321	0	33718	
3322	0	33694	
3323	0	33744	
3324	0	33752	
3325	0	33728	
3326	0	33792	
3327	0	33728	
3328	0	33664	
3329	0	33625	
3330	0	33528	
3331	0	33418	
3332	0	33376	
3333	0	33272	
3334	0	33320	
3335	0	33240	
3336	0	33173	
3337	0	33188	
3338	0	33120	
3339	0	33088	
3340	0	33106	
3341	0	33057	
3342	0	33017	
3343	0	32988	
3344	0	32989	
3345	0	32984	
3346	0	32933	
3347	0	32840	
3348	0	32804	
3349	0	32693	
3350	0	32548	
3351	0	32498	
3352	0	32416	
3353	0	32321	
3354	0	32236	
3355	0	32246	
3356	0	32160	
3357	0	32079	
3358	0	32018	
3359	0	31920	
3360	0	31904	
3361	0	31830	
3362	0	31814	
3363	0	31748	
3364	0	31740	
3365	0	31656	
3366	0	31570	
3367	0	31588	
3368	0	31478	
3369	0	31392	
3370	0	31220	
3371	0	31165	
3372	0	31064	
3373	0	30972	
3374	0	30880	
3375	0	30828	
3376	0	30728	
3377	0	30580	
3378	0	30528	
3379	0	30440	
3380	0	30436	
3381	0	30376	
3382	0	30312	
3383	0	30329	
3384	0	30256	
3385	0	30176	
3386	0	30152	
3387	0	30068	
3388	0	29925	
3389	0	29808	
3390	0	29727	
3391	0	29620	
3392	0	29528	
3393	0	29368	
3394	0	29245	
3395	0	29241	
3396	0	29125	
3397	0	29040	
3398	0	28985	
3399	0	28940	
3400	0	28836	
3401	0	28783	
3402	0	28724	
3403	0	28696	
3404	0	28656	
3405	0	28600	
3406	0	28560	
3407	0	28420	
3408	0	28304	
3409	0	28210	
3410	0	28090	
3411	0	27950	
3412	0	27882	
3413	0	27740	
3414	0	27702	
3415	0	27648	
3416	0	27544	
3417	0	27492	
3418	0	27438	
3419	0	27270	
3420	0	27265	
3421	0	27137	
3422	0	27096	
3423	0	27058	
3424	0	27036	
3425	0	26990	
3426	0	26902	
3427	0	26820	
3428	0	26729	
3429	0	26632	
3430	0	26504	
3431	0	26360	
3432	0	26277	
3433	0	26178	
3434	0	26057	
3435	0	26081	
3436	0	25998	
3437	0	25930	
3438	0	25836	
3439	0	25800	
3440	0	25789	
3441	0	25710	
3442	0	25624	
3443	0	25628	
3444	0	25577	
3445	0	25529	
3446	0	25416	
3447	0	25404	
3448	0	25285	
3449	0	25184	
3450	0	25060	
3451	0	24932	
3452	0	24828	
3453	0	24772	
3454	0	24718	
3455	0	24665	
3456	0	24632	
3457	0	24529	
3458	0	24460	
3459	0	24426	
3460	0	24402	
3461	0	24346	
3462	0	24312	
3463	0	24300	
3464	0	24328	
3465	0	24265	
3466	0	24264	
3467	0	24224	
3468	0	24128	
3469	0	24064	
3470	0	23929	
3471	0	23849	
3472	0	23838	
3473	0	23736	
3474	0	23686	
3475	0	23680	
3476	0	23564	
3477	0	23522	
3478	0	23452	
3479	0	23444	
3480	0	23421	
3481	0	23344	
3482	0	23312	
3483	0	23303	
3484	0	23244	
3485	0	23248	
3486	0	23216	
3487	0	23192	
3488	0	23132	
3489	0	23046	
3490	0	22977	
3491	0	22848	
3492	0	22797	
3493	0	22753	
3494	0	22690	
3495	0	22661	
3496	0	22592	
3497	0	22607	
3498	0	22515	
3499	0	22474	
3500	0	22480	
3501	0	22447	
3502	0	22466	
3503	0	22512	
3504	0	22530	
3505	0	22482	
3506	0	22480	
3507	0	22452	
3508	0	22409	
3509	0	22332	
3510	0	22218	
3511	0	22165	
3512	0	22105	
3513	0	22002	
3514	0	21989	
3515	0	21967	
3516	0	21951	
3517	0	21882	
3518	0	21847	
3519	0	21833	
3520	0	21813	
3521	0	21784	
3522	0	21790	
3523	0	21871	
3524	0	21814	
3525	0	21800	
3526	0	21788	
3527	0	21848	
3528	0	21740	
3529	0	21612	
3530	0	21608	
3531	0	21512	
3532	0	21489	
3533	0	21441	
3534	0	21388	
3535	0	21365	
3536	0	21270	
3537	0	21258	
3538	0	21248	
3539	0	21208	
3540	0	21206	
3541	0	21179	
3542	0	21176	
3543	0	21222	
3544	0	21212	
3545	0	21194	
3546	0	21196	
3547	0	21150	
3548	0	21120	
3549	0	21090	
3550	0	20974	
3551	0	20910	
3552	0	20861	
3553	0	20794	
3554	0	20748	
3555	0	20752	
3556	0	20705	
3557	0	20652	
3558	0	20592	
3559	0	20632	
3560	0	20606	
3561	0	20584	
3562	0	20642	
3563	0	20629	
3564	0	20645	
3565	0	20584	
3566	0	20624	
3567	0	20644	
3568	0	20525	
3569	0	20437	
3570	0	20398	
3571	0	20348	
3572	0	20268	
3573	0	20252	
3574	0	20192	
3575	0	20178	
3576	0	20180	
3577	0	20196	
3578	0	20222	
3579	0	20240	
3580	0	20232	
3581	0	20234	
3582	0	20264	
3583	0	20334	
3584	0	20396	
3585	0	20408	
3586	0	20418	
3587	0	20485	
3588	0	20436	
3589	0	20542	
3590	0	20508	
3591	0	20595	
3592	0	20728	
3593	0	20850	
3594	0	21032	
3595	0	21202	
3596	0	21440	
3597	0	21640	
3598	0	21870	
3599	0	22152	
3600	0	22492	
3601	0	22780	
3602	0	23132	
3603	0	23573	
3604	0	23992	
3605	0	24400	
3606	0	24854	
3607	0	25232	
3608	0	25772	
3609	0	26194	
3610	0	26622	
3611	0	27175	
3612	0	27614	
3613	0	28168	
3614	0	28716	
3615	0	29256	
3616	0	29849	
3617	0	30400	
3618	0	30992	
3619	0	31544	
3620	0	32160	
3621	0	32752	
3622	0	33400	
3623	0	34060	
3624	0	34640	
3625	0	35258	
3626	0	35888	
3627	0	36476	
3628	0	37022	
3629	0	37528	
3630	0	38073	
3631	0	38626	
3632	0	39132	
3633	0	39652	
3634	0	40250	
3635	0	40712	
3636	0	41252	
3637	0	41820	
3638	0	42300	
3639	0	42788	
3640	0	43337	
3641	0	43824	
3642	0	44324	
3643	0	44845	
3644	0	45340	
3645	0	45836	
3646	0	46304	
3647	0	46652	
3648	0	47066	
3649	0	47434	
3650	0	47768	
3651	0	48152	
3652	0	48496	
3653	0	48864	
3654	0	49130	
3655	0	49549	
3656	0	49896	
3657	0	50184	
3658	0	50516	
3659	0	50868	
3660	0	51191	
3661	0	51477	
3662	0	51788	
3663	0	52096	
3664	0	52448	
3665	0	52712	
3666	0	52952	
3667	0	53152	
3668	0	53408	
3669	0	53568	
3670	0	53697	
3671	0	53920	
3672	0	54108	
3673	0	54214	
3674	0	54328	
3675	0	54528	
3676	0	54678	
3677	0	54768	
3678	0	54956	
3679	0	55128	
3680	0	55208	
3681	0	55340	
3682	0	55456	
3683	0	55632	
3684	0	55792	
3685	0	55853	
3686	0	55880	
3687	0	55952	
3688	0	55936	
3689	0	55936	
3690	0	55916	
3691	0	55936	
3692	0	55902	
3693	0	55884	
3694	0	55824	
3695	0	55860	
3696	0	55792	
3697	0	55824	
3698	0	55716	
3699	0	55684	
3700	0	55668	
3701	0	55632	
3702	0	55550	
3703	0	55520	
3704	0	55472	
3705	0	55424	
3706	0	55344	
3707	0	55264	
3708	0	55120	
3709	0	54976	
3710	0	54804	
3711	0	54640	
3712	0	54536	
3713	0	54312	
3714	0	54194	
3715	0	54086	
3716	0	53876	
3717	0	53732	
3718	0	53585	
3719	0	53396	
3720	0	53266	
3721	0	53156	
3722	0	53024	
3723	0	52858	
3724	0	52748	
3725	0	52580	
3726	0	52368	
3727	0	52160	
3728	0	51936	
3729	0	51680	
3730	0	51424	
3731	0	51244	
3732	0	50956	
3733	0	50720	
3734	0	50536	
3735	0	50348	
3736	0	50152	
3737	0	49984	
3738	0	49720	
3739	0	49504	
3740	0	49348	
3741	0	49105	
3742	0	48972	
3743	0	48793	
3744	0	48636	
3745	0	48404	
3746	0	48176	
3747	0	47952	
3748	0	47744	
3749	0	47444	
3750	0	47183	
3751	0	46917	
3752	0	46700	
3753	0	46455	
3754	0	46228	
3755	0	46068	
3756	0	45816	
3757	0	45576	
3758	0	45349	
3759	0	45184	
3760	0	45012	
3761	0	44808	
3762	0	44628	
3763	0	44525	
3764	0	44352	
3765	0	44121	
3766	0	43904	
3767	0	43722	
3768	0	43500	
3769	0	43246	
3770	0	43064	
3771	0	42842	
3772	0	42652	
3773	0	42370	
3774	0	42144	
3775	0	41996	
3776	0	41794	
3777	0	41620	
3778	0	41496	
3779	0	41313	
3780	0	41164	
3781	0	41024	
3782	0	40864	
3783	0	40720	
3784	0	40604	
3785	0	40436	
3786	0	40300	
3787	0	40112	
3788	0	39948	
3789	0	39760	
3790	0	39568	
3791	0	39400	
3792	0	39196	
3793	0	39032	
3794	0	38844	
3795	0	38703	
3796	0	38580	
3797	0	38384	
3798	0	38304	
3799	0	38160	
3800	0	38028	
3801	0	37858	
3802	0	37780	
3803	0	37653	
3804	0	37540	
3805	0	37416	
3806	0	37272	
3807	0	37085	
3808	0	36920	
3809	0	36814	
3810	0	36584	
3811	0	36456	
3812	0	36324	
3813	0	36124	
3814	0	35972	
3815	0	35860	
3816	0	35698	
3817	0	35548	
3818	0	35456	
3819	0	35302	
3820	0	35220	
3821	0	35074	
3822	0	34916	
3823	0	34848	
3824	0	34720	
3825	0	34536	
3826	0	34490	
3827	0	34344	
3828	0	34190	
3829	0	33966	
3830	0	33802	
3831	0	33646	
3832	0	33502	
3833	0	33308	
3834	0	33186	
3835	0	33120	
3836	0	32960	
3837	0	32872	
3838	0	32752	
3839	0	32588	
3840	0	32508	
3841	0	32444	
3842	0	32324	
3843	0	32320	
3844	0	32224	
3845	0	32132	
3846	0	32036	
3847	0	31914	
3848	0	31840	
3849	0	31700	
3850	0	31620	
3851	0	31456	
3852	0	31446	
3853	0	31224	
3854	0	31110	
3855	0	31072	
3856	0	31016	
3857	0	30922	
3858	0	30932	
3859	0	30852	
3860	0	30800	
3861	0	30768	
3862	0	30769	
3863	0	30768	
3864	0	30785	
3865	0	30776	
3866	0	30732	
3867	0	30756	
3868	0	30684	
3869	0	30624	
3870	0	30535	
3871	0	30429	
3872	0	30470	
3873	0	30441	
3874	0	30388	
3875	0	30386	
3876	0	30368	
3877	0	30428	
3878	0	30362	
3879	0	30400	
3880	0	30397	
3881	0	30421	
3882	0	30452	
3883	0	30572	
3884	0	30637	
3885	0	30716	
3886	0	30749	
3887	0	30744	
3888	0	30688	
3889	0	30724	
3890	0	30688	
3891	0	30689	
3892	0	30733	
3893	0	30730	
3894	0	30797	
3895	0	30839	
3896	0	30872	
3897	0	30872	
3898	0	30916	
3899	0	30932	
3900	0	31002	
3901	0	31117	
3902	0	31185	
3903	0	31260	
3904	0	31313	
3905	0	31426	
3906	0	31457	
3907	0	31492	
3908	0	31549	
3909	0	31588	
3910	0	31658	
3911	0	31672	
3912	0	31712	
3913	0	31708	
3914	0	31770	
3915	0	31804	
3916	0	31880	
3917	0	31936	
3918	0	32000	
3919	0	32057	
3920	0	32110	
3921	0	32180	
3922	0	32288	
3923	0	32370	
3924	0	32440	
3925	0	32542	
3926	0	32537	
3927	0	32597	
3928	0	32768	
3929	0	32748	
3930	0	32712	
3931	0	32781	
3932	0	32822	
3933	0	32840	
3934	0	32886	
3935	0	32960	
3936	0	32978	
3937	0	33044	
3938	0	33116	
3939	0	33168	
3940	0	33224	
3941	0	33306	
3942	0	33344	
3943	0	33420	
3944	0	33517	
3945	0	33557	
3946	0	33593	
3947	0	33601	
3948	0	33680	
3949	0	33668	
3950	0	33696	
3951	0	33656	
3952	0	33680	
3953	0	33721	
3954	0	33728	
3955	0	33786	
3956	0	33807	
3957	0	33818	
3958	0	33816	
3959	0	33871	
3960	0	33904	
3961	0	33922	
3962	0	34000	
3963	0	34000	
3964	0	34112	
3965	0	34102	
3966	0	34160	
3967	0	34188	
3968	0	34128	
3969	0	34131	
3970	0	34124	
3971	0	34057	
3972	0	34103	
3973	0	34066	
3974	0	33948	
3975	0	33968	
3976	0	33936	
3977	0	33988	
3978	0	33998	
3979	0	34004	
3980	0	33985	
3981	0	34049	
3982	0	33977	
3983	0	33976	
3984	0	33930	
3985	0	33968	
3986	0	33984	
3987	0	33964	
3988	0	33945	
3989	0	33904	
3990	0	33786	
3991	0	33676	
3992	0	33650	
3993	0	33576	
3994	0	33545	
3995	0	33510	
3996	0	33476	
3997	0	33472	
3998	0	33388	
3999	0	33328	
4000	0	33296	
4001	0	33282	
4002	0	33221	
4003	0	33200	
4004	0	33201	
4005	0	33148	
4006	0	33120	
4007	0	33040	
4008	0	32994	
4009	0	32935	
4010	0	32817	
4011	0	32676	
4012	0	32616	
4013	0	32556	
4014	0	32413	
4015	0	32384	
4016	0	32304	
4017	0	32280	
4018	0	32196	
4019	0	32090	
4020	0	32088	
4021	0	32024	
4022	0	31960	
4023	0	31930	
4024	0	31944	
4025	0	31915	
4026	0	31813	
4027	0	31810	
4028	0	31644	
4029	0	31532	
4030	0	31456	
4031	0	31292	
4032	0	31256	
4033	0	31148	
4034	0	31024	
4035	0	30921	
4036	0	30829	
4037	0	30816	
4038	0	30746	
4039	0	30656	
4040	0	30616	
4041	0	30620	
4042	0	30520	
4043	0	30539	
4044	0	30472	
4045	0	30364	
4046	0	30312	
4047	0	30272	
4048	0	30156	
4049	0	30048	
4050	0	29888	
4051	0	29726	
4052	0	29634	
4053	0	29570	
4054	0	29505	
4055	0	29432	
4056	0	29320	
4057	0	29278	
4058	0	29204	
4059	0	29087	
4060	0	29033	
4061	0	28986	
4062	0	28917	
4063	0	28885	
4064	0	28842	
4065	0	28748	
4066	0	28703	
4067	0	28602	
4068	0	28572	
4069	0	28430	
4070	0	28284	
4071	0	28208	
4072	0	28136	
4073	0	28044	
4074	0	27976	
4075	0	27896	
4076	0	27732	
4077	0	27690	
4078	0	27586	
4079	0	27552	
4080	0	27484	
4081	0	27415	
4082	0	27364	
4083	0	27326	
4084	0	27310	
4085	0	27212	
4086	0	27136	
4087	0	27124	
4088	0	27000	
4089	0	26927	
4090	0	26760	
4091	0	26654	
4092	0	26616	
4093	0	26500	
4094	0	26416	
4095	0	26293	
4096	0	26236	
4097	0	26148	
4098	0	26120	
4099	0	26016	
4100	0	26007	
4101	0	25917	
4102	0	25896	
4103	0	25845	
4104	0	25850	
4105	0	25862	
4106	0	25760	
4107	0	25716	
4108	0	25619	
4109	0	25516	
4110	0	25421	
4111	0	25304	
4112	0	25280	
4113	0	25176	
4114	0	25124	
4115	0	25042	
4116	0	24948	
4117	0	24892	
4118	0	24800	
4119	0	24706	
4120	0	24720	
4121	0	24680	
4122	0	24612	
4123	0	24576	
4124	0	24560	
4125	0	24516	
4126	0	24468	
4127	0	24409	
4128	0	24372	
4129	0	24284	
4130	0	24146	
4131	0	24092	
4132	0	23976	
4133	0	23866	
4134	0	23796	
4135	0	23774	
4136	0	23732	
4137	0	23689	
4138	0	23632	
4139	0	23525	
4140	0	23529	
4141	0	23552	
4142	0	23557	
4143	0	23525	
4144	0	23528	
4145	0	23494	
4146	0	23488	
4147	0	23445	
4148	0	23392	
4149	0	23300	
4150	0	23208	
4151	0	23140	
4152	0	23112	
4153	0	23085	
4154	0	23036	
4155	0	22972	
4156	0	22964	
4157	0	22942	
4158	0	22932	
4159	0	22876	
4160	0	22904	
4161	0	22890	
4162	0	22869	
4163	0	22896	
4164	0	22900	
4165	0	22865	
4166	0	22870	
4167	0	22865	
4168	0	22821	
4169	0	22789	
4170	0	22664	
4171	0	22578	
4172	0	22568	
4173	0	22528	
4174	0	22504	
4175	0	22468	
4176	0	22436	
4177	0	22401	
4178	0	22332	
4179	0	22292	
4180	0	22361	
4181	0	22395	
4182	0	22325	
4183	0	22325	
4184	0	22352	
4185	0	22296	
4186	0	22330	
4187	0	22311	
4188	0	22240	
4189	0	22216	
4190	0	22112	
4191	0	22049	
4192	0	22008	
4193	0	21903	
4194	0	21928	
4195	0	21952	
4196	0	21936	
4197	0	21832	
4198	0	21856	
4199	0	21803	
4200	0	21800	
4201	0	21764	
4202	0	21805	
4203	0	21791	
4204	0	21766	
4205	0	21778	
4206	0	21780	
4207	0	21738	
4208	0	21700	
4209	0	21688	
4210	0	21585	
4211	0	21528	
4212	0	21442	
4213	0	21376	
4214	0	21338	
4215	0	21302	
4216	0	21278	
4217	0	21233	
4218	0	21156	
4219	0	21130	
4220	0	21144	
4221	0	21128	
4222	0	21122	
4223	0	21136	
4224	0	21165	
4225	0	21134	
4226	0	21108	
4227	0	21061	
4228	0	20982	
4229	0	20936	
4230	0	20843	
4231	0	20800	
4232	0	20777	
4233	0	20794	
4234	0	20711	
4235	0	20666	
4236	0	20709	
4237	0	20665	
4238	0	20754	
4239	0	20754	
4240	0	20769	
4241	0	20846	
4242	0	20868	
4243	0	20992	
4244	0	21081	
4245	0	21256	
4246	0	21382	
4247	0	21460	
4248	0	21599	
4249	0	21752	
4250	0	21889	
4251	0	22040	
4252	0	22290	
4253	0	22464	
4254	0	22702	
4255	0	23072	
4256	0	23384	
4257	0	23738	
4258	0	24109	
4259	0	24564	
4260	0	24968	
4261	0	25444	
4262	0	25892	
4263	0	26412	
4264	0	26942	
4265	0	27498	
4266	0	27972	
4267	0	28543	
4268	0	29020	
4269	0	29504	
4270	0	30058	
4271	0	30612	
4272	0	31140	
4273	0	31704	
4274	0	32192	
4275	0	32808	
4276	0	33386	
4277	0	33976	
4278	0	34580	
4279	0	35218	
4280	0	35808	
4281	0	36416	
4282	0	36958	
4283	0	37552	
4284	0	38132	
4285	0	38640	
4286	0	39280	
4287	0	39812	
4288	0	40376	
4289	0	40890	
4290	0	41368	
4291	0	41791	
4292	0	42252	
4293	0	42748	
4294	0	43268	
4295	0	43712	
4296	0	44180	
4297	0	44672	
4298	0	45152	
4299	0	45592	
4300	0	46096	
4301	0	46596	
4302	0	46968	
4303	0	47352	
4304	0	47808	
4305	0	48200	
4306	0	48568	
4307	0	48962	
4308	0	49312	
4309	0	49628	
4310	0	49876	
4311	0	50215	
4312	0	50588	
4313	0	50864	
4314	0	51075	
4315	0	51443	
4316	0	51776	
4317	0	52037	
4318	0	52295	
4319	0	52474	
4320	0	52736	
4321	0	53010	
4322	0	53248	
4323	0	53480	
4324	0	53808	
4325	0	53944	
4326	0	54176	
4327	0	54328	
4328	0	54532	
4329	0	54724	
4330	0	54768	
4331	0	54816	
4332	0	54984	
4333	0	55089	
4334	0	55152	
4335	0	55288	
4336	0	55368	
4337	0	55450	
4338	0	55508	
4339	0	55560	
4340	0	55630	
4341	0	55703	
4342	0	55784	
4343	0	55876	
4344	0	55984	
4345	0	56013	
4346	0	55970	
4347	0	55972	
4348	0	55992	
4349	0	55920	
4350	0	55812	
4351	0	55784	
4352	0	55768	
4353	0	55652	
4354	0	55552	
4355	0	55584	
4356	0	55488	
4357	0	55360	
4358	0	55256	
4359	0	55175	
4360	0	55144	
4361	0	55092	
4362	0	54996	
4363	0	54908	
4364	0	54816	
4365	0	54688	
4366	0	54560	
4367	0	54456	
4368	0	54253	
4369	0	54104	
4370	0	53904	
4371	0	53663	
4372	0	53540	
4373	0	53376	
4374	0	53152	
4375	0	52944	
4376	0	52768	
4377	0	52600	
4378	0	52408	
4379	0	52184	
4380	0	52052	
4381	0	51888	
4382	0	51688	
4383	0	51508	
4384	0	51364	
4385	0	51180	
4386	0	50970	
4387	0	50772	
4388	0	50552	
4389	0	50284	
4390	0	50080	
4391	0	49824	
4392	0	49664	
4393	0	49356	
4394	0	49056	
4395	0	48882	
4396	0	48673	
4397	0	48408	
4398	0	48177	
4399	0	47960	
4400	0	47744	
4401	0	47568	
4402	0	47321	
4403	0	47148	
4404	0	46928	
4405	0	46732	
4406	0	46504	
4407	0	46290	
4408	0	46050	
4409	0	45808	
4410	0	45548	
4411	0	45340	
4412	0	45136	
4413	0	44840	
4414	0	44632	
4415	0	44360	
4416	0	44124	
4417	0	43946	
4418	0	43752	
4419	0	43544	
4420	0	43324	
4421	0	43092	
4422	0	42960	
4423	0	42736	
4424	0	42550	
4425	0	42377	
4426	0	42200	
4427	0	41976	
4428	0	41797	
4429	0	41629	
4430	0	41344	
4431	0	41070	
4432	0	40856	
4433	0	40648	
4434	0	40448	
4435	0	40292	
4436	0	40096	
4437	0	39848	
4438	0	39744	
4439	0	39581	
4440	0	39380	
4441	0	39233	
4442	0	39072	
4443	0	38916	
4444	0	38828	
4445	0	38680	
4446	0	38508	
4447	0	38341	
4448	0	38144	
4449	0	37914	
4450	0	37698	
4451	0	37474	
4452	0	37340	
4453	0	37172	
4454	0	36928	
4455	0	36748	
4456	0	36640	
4457	0	36436	
4458	0	36320	
4459	0	36145	
4460	0	36012	
4461	0	35874	
4462	0	35725	
4463	0	35572	
4464	0	35484	
4465	0	35350	
4466	0	35200	
4467	0	35080	
4468	0	34832	
4469	0	34720	
4470	0	34536	
4471	0	34336	
4472	0	34221	
4473	0	34016	
4474	0	33824	
4475	0	33664	
4476	0	33562	
4477	0	33401	
4478	0	33272	
4479	0	33120	
4480	0	33010	
4481	0	32892	
4482	0	32760	
4483	0	32673	
4484	0	32585	
4485	0	32430	
4486	0	32298	
4487	0	32130	
4488	0	32014	
4489	0	31833	
4490	0	31666	
4491	0	31388	
4492	0	31284	
4493	0	31172	
4494	0	31010	
4495	0	30892	
4496	0	30752	
4497	0	30660	
4498	0	30572	
4499	0	30513	
4500	0	30418	
4501	0	30346	
4502	0	30263	
4503	0	30194	
4504	0	30177	
4505	0	30144	
4506	0	30057	
4507	0	29992	
4508	0	29960	
4509	0	29780	
4510	0	29692	
4511	0	29660	
4512	0	29620	
4513	0	29480	
4514	0	29387	
4515	0	29351	
4516	0	29284	
4517	0	29349	
4518	0	29260	
4519	0	29285	
4520	0	29255	
4521	0	29258	
4522	0	29252	
4523	0	29264	
4524	0	29244	
4525	0	29274	
4526	0	29300	
4527	0	29272	
4528	0	29298	
4529	0	29289	
4530	0	29236	
4531	0	29234	
4532	0	29176	
4533	0	29162	
4534	0	29161	
4535	0	29192	
4536	0	29132	
4537	0	29189	
4538	0	29216	
4539	0	29240	
4540	0	29312	
4541	0	29369	
4542	0	29341	
4543	0	29466	
4544	0	29546	
4545	0	29596	
4546	0	29660	
4547	0	29714	
4548	0	29776	
4549	0	29852	
4550	0	29803	
4551	0	29812	
4552	0	29856	
4553	0	29892	
4554	0	29909	
4555	0	30023	
4556	0	30093	
4557	0	30151	
4558	0	30233	
4559	0	30297	
4560	0	30412	
4561	0	30498	
4562	0	30620	
4563	0	30682	
4564	0	30824	
4565	0	30958	
4566	0	31070	
4567	0	31162	
4568	0	31183	
4569	0	31236	
4570	0	31312	
4571	0	31325	
4572	0	31336	
4573	0	31381	
4574	0	31421	
4575	0	31516	
4576	0	31626	
4577	0	31700	
4578	0	31744	
4579	0	31816	
4580	0	31976	
4581	0	32092	
4582	0	32140	
4583	0	32245	
4584	0	32424	
4585	0	32528	
4586	0	32596	
4587	0	32664	
4588	0	32711	
4589	0	32741	
4590	0	32769	
4591	0	32848	
4592	0	32876	
4593	0	32916	
4594	0	33014	
4595	0	33052	
4596	0	33088	
4597	0	33108	
4598	0	33237	
4599	0	33284	
4600	0	33304	
4601	0	33440	
4602	0	33552	
4603	0	33602	
4604	0	33688	
4605	0	33800	
4606	0	33868	
4607	0	33944	
4608	0	33913	
4609	0	33968	
4610	0	33949	
4611	0	33964	
4612	0	33966	
4613	0	34032	
4614	0	34016	
4615	0	34020	
4616	0	34056	
4617	0	34092	
4618	0	34131	
4619	0	34141	
4620	0	34190	
4621	0	34248	
4622	0	34276	
4623	0	34325	
4624	0	34408	
4625	0	34464	
4626	0	34464	
4627	0	34504	
4628	0	34496	
4629	0	34432	
4630	0	34423	
4631	0	34400	
4632	0	34368	
4633	0	34305	
4634	0	34318	
4635	0	34284	
4636	0	34268	
4637	0	34238	
4638	0	34244	
4639	0	34249	
4640	0	34262	
4641	0	34280	
4642	0	34240	
4643	0	34225	
4644	0	34258	
4645	0	34272	
4646	0	34284	
4647	0	34240	
4648	0	34181	
4649	0	34181	
4650	0	34112	
4651	0	34004	
4652	0	33960	
4653	0	33877	
4654	0	33798	
4655	0	33829	
4656	0	33824	
4657	0	33737	
4658	0	33663	
4659	0	33632	
4660	0	33596	
4661	0	33584	
4662	0	33608	
4663	0	33608	
4664	0	33568	
4665	0	33508	
4666	0	33476	
4667	0	33457	
4668	0	33413	
4669	0	33354	
4670	0	33264	
4671	0	33196	
4672	0	33065	
4673	0	33035	
4674	0	32928	
4675	0	32914	
4676	0	32868	
4677	0	32788	
4678	0	32684	
4679	0	32650	
4680	0	32608	
4681	0	32627	
4682	0	32591	
4683	0	32592	
4684	0	32560	
4685	0	32544	
4686	0	32506	
4687	0	32452	
4688	0	32357	
4689	0	32280	
4690	0	32148	
4691	0	32017	
4692	0	31920	
4693	0	31848	
4694	0	31685	
4695	0	31680	
4696	0	31612	
4697	0	31560	
4698	0	31514	
4699	0	31440	
4700	0	31349	
4701	0	31312	
4702	0	31213	
4703	0	31140	
4704	0	31180	
4705	0	31124	
4706	0	31051	
4707	0	30988	
4708	0	30852	
4709	0	30746	
4710	0	30618	
4711	0	30432	
4712	0	30406	
4713	0	30338	
4714	0	30226	
4715	0	30176	
4716	0	30072	
4717	0	30004	
4718	0	29912	
4719	0	29842	
4720	0	29764	
4721	0	29708	
4722	0	29649	
4723	0	29584	
4724	0	29524	
4725	0	29502	
4726	0	29416	
4727	0	29337	
4728	0	29236	
4729	0	29096	
4730	0	28992	
4731	0	28858	
4732	0	28748	
4733	0	28732	
4734	0	28584	
4735	0	28468	
4736	0	28364	
4737	0	28302	
4738	0	28261	
4739	0	28156	
4740	0	28096	
4741	0	28082	
4742	0	28012	
4743	0	27949	
4744	0	27852	
4745	0	27840	
4746	0	27816	
4747	0	27782	
4748	0	27670	
4749	0	27584	
4750	0	27473	
4751	0	27380	
4752	0	27272	
4753	0	27161	
4754	0	27129	
4755	0	27002	
4756	0	26880	
4757	0	26836	
4758	0	26726	
4759	0	26614	
4760	0	26592	
4761	0	26561	
4762	0	26482	
4763	0	26434	
4764	0	26424	
4765	0	26389	
4766	0	26326	
4767	0	26263	
4768	0	26170	
4769	0	26104	
4770	0	25987	
4771	0	25864	
4772	0	25762	
4773	0	25656	
4774	0	25568	
4775	0	25476	
4776	0	25432	
4777	0	25337	
4778	0	25266	
4779	0	25201	
4780	0	25144	
4781	0	25145	
4782	0	25056	
4783	0	25012	
4784	0	25029	
4785	0	25037	
4786	0	24941	
4787	0	24881	
4788	0	24846	
4789	0	24760	
4790	0	24656	
4791	0	24493	
4792	0	24442	
4793	0	24376	
4794	0	24181	
4795	0	24160	
4796	0	24172	
4797	0	24060	
4798	0	24040	
4799	0	23966	
4800	0	23940	
4801	0	23896	
4802	0	23877	
4803	0	23852	
4804	0	23826	
4805	0	23810	
4806	0	23779	
4807	0	23754	
4808	0	23689	
4809	0	23593	
4810	0	23524	
4811	0	23402	
4812	0	23321	
4813	0	23268	
4814	0	23166	
4815	0	23073	
4816	0	22975	
4817	0	22964	
4818	0	22944	
4819	0	22856	
4820	0	22826	
4821	0	22812	
4822	0	22730	
4823	0	22744	
4824	0	22733	
4825	0	22752	
4826	0	22620	
4827	0	22604	
4828	0	22574	
4829	0	22489	
4830	0	22412	
4831	0	22272	
4832	0	22242	
4833	0	22141	
4834	0	22128	
4835	0	21968	
4836	0	21940	
4837	0	21868	
4838	0	21824	
4839	0	21789	
4840	0	21754	
4841	0	21730	
4842	0	21679	
4843	0	21684	
4844	0	21714	
4845	0	21652	
4846	0	21640	
4847	0	21616	
4848	0	21552	
4849	0	21456	
4850	0	21400	
4851	0	21297	
4852	0	21202	
4853	0	21148	
4854	0	21112	
4855	0	21006	
4856	0	20922	
4857	0	20907	
4858	0	20914	
4859	0	20823	
4860	0	20832	
4861	0	20904	
4862	0	20850	
4863	0	20828	
4864	0	20831	
4865	0	20878	
4866	0	20872	
4867	0	20792	
4868	0	20768	
4869	0	20679	
4870	0	20616	
4871	0	20565	
4872	0	20524	
4873	0	20456	
4874	0	20380	
4875	0	20337	
4876	0	20401	
4877	0	20384	
4878	0	20276	
4879	0	20269	
4880	0	20272	
4881	0	20260	
4882	0	20318	
4883	0	20320	
4884	0	20380	
4885	0	20408	
4886	0	20418	
4887	0	20402	
4888	0	20393	
4889	0	20416	
4890	0	20398	
4891	0	20401	
4892	0	20437	
4893	0	20422	
4894	0	20512	
4895	0	20584	
4896	0	20774	
4897	0	20896	
4898	0	21004	
4899	0	21216	
4900	0	21388	
4901	0	21658	
4902	0	21920	
4903	0	22190	
4904	0	22504	
4905	0	22840	
4906	0	23172	
4907	0	23572	
4908	0	23956	
4909	0	24256	
4910	0	24677	
4911	0	25084	
4912	0	25464	
4913	0	25884	
4914	0	26317	
4915	0	26770	
4916	0	27296	
4917	0	27800	
4918	0	28350	
4919	0	28913	
4920	0	29434	
4921	0	30012	
4922	0	30590	
4923	0	31120	
4924	0	31776	
4925	0	32368	
4926	0	32872	
4927	0	33472	
4928	0	34014	
4929	0	34564	
4930	0	35104	
4931	0	35630	
4932	0	36136	
4933	0	36680	
4934	0	37276	
4935	0	37756	
4936	0	38320	
4937	0	38820	
4938	0	39364	
4939	0	39920	
4940	0	40480	
4941	0	41000	
4942	0	41584	
4943	0	42056	
4944	0	42588	
4945	0	43072	
4946	0	43544	
4947	0	44047	
4948	0	44398	
4949	0	44848	
4950	0	45264	
4951	0	45600	
4952	0	46000	
4953	0	46396	
4954	0	46716	
4955	0	47040	
4956	0	47542	
4957	0	47898	
4958	0	48261	
4959	0	48620	
4960	0	48922	
4961	0	49316	
4962	0	49616	
4963	0	49936	
4964	0	50249	
4965	0	50628	
4966	0	50877	
4967	0	51140	
4968	0	51396	
4969	0	51592	
4970	0	51769	
4971	0	51892	
4972	0	52096	
4973	0	52304	
4974	0	52480	
4975	0	52628	
4976	0	52808	
4977	0	52968	
4978	0	53090	
4979	0	53252	
4980	0	53368	
4981	0	53540	
4982	0	53684	
4983	0	53776	
4984	0	53920	
4985	0	54036	
4986	0	54120	
4987	0	54215	
4988	0	54286	
4989	0	54260	
4990	0	54196	
4991	0	54188	
4992	0	54176	
4993	0	54224	
4994	0	54216	
4995	0	54184	
4996	0	54208	
4997	0	54176	
4998	0	54164	
4999	0	54120	
5000	0	54064	
5001	0	54016	
5002	0	53972	
5003	0	53944	
5004	0	53884	
5005	0	53809	
5006	0	53784	
5007	0	53684	
5008	0	53560	
5009	0	53470	
5010	0	53324	
5011	0	53152	
5012	0	52976	
5013	0	52816	
5014	0	52636	
5015	0	52524	
5016	0	52352	
5017	0	52196	
5018	0	52016	
5019	0	51804	
5020	0	51668	
5021	0	51520	
5022	0	51392	
5023	0	51204	
5024	0	51104	
5025	0	50968	
5026	0	50764	
5027	0	50604	
5028	0	50356	
5029	0	50156	
5030	0	49896	
5031	0	49584	
5032	0	49340	
5033	0	49148	
5034	0	48913	
5035	0	48752	
5036	0	48535	
5037	0	48279	
5038	0	48024	
5039	0	47798	
5040	0	47604	
5041	0	47392	
5042	0	47190	
5043	0	46956	
5044	0	46796	
5045	0	46592	
5046	0	46316	
5047	0	46128	
5048	0	45952	
5049	0	45663	
5050	0	45384	
5051	0	45056	
5052	0	44764	
5053	0	44617	
5054	0	44304	
5055	0	44080	
5056	0	43920	
5057	0	43648	
5058	0	43432	
5059	0	43168	
5060	0	42944	
5061	0	42710	
5062	0	42524	
5063	0	42300	
5064	0	42132	
5065	0	42026	
5066	0	41816	
5067	0	41569	
5068	0	41320	
5069	0	41068	
5070	0	40784	
5071	0	40560	
5072	0	40372	
5073	0	40160	
5074	0	39903	
5075	0	39708	
5076	0	39520	
5077	0	39320	
5078	0	39084	
5079	0	38902	
5080	0	38708	
5081	0	38480	
5082	0	38340	
5083	0	38208	
5084	0	37980	
5085	0	37876	
5086	0	37640	
5087	0	37492	
5088	0	37296	
5089	0	37092	
5090	0	36888	
5091	0	36672	
5092	0	36428	
5093	0	36256	
5094	0	36076	
5095	0	35854	
5096	0	35724	
5097	0	35564	
5098	0	35392	
5099	0	35204	
5100	0	35048	
5101	0	34940	
5102	0	34794	
5103	0	34624	
5104	0	34465	
5105	0	34348	
5106	0	34204	
5107	0	34028	
5108	0	33882	
5109	0	33646	
5110	0	33488	
5111	0	33221	
5112	0	33060	
5113	0	32919	
5114	0	32680	
5115	0	32544	
5116	0	32392	
5117	0	32220	
5118	0	31988	
5119	0	31832	
5120	0	31678	
5121	0	31576	
5122	0	31424	
5123	0	31300	
5124	0	31200	
5125	0	31038	
5126	0	30844	
5127	0	30685	
5128	0	30570	
5129	0	30360	
5130	0	30193	
5131	0	29967	
5132	0	29732	
5133	0	29609	
5134	0	29405	
5135	0	29265	
5136	0	29137	
5137	0	28954	
5138	0	28848	
5139	0	28792	
5140	0	28582	
5141	0	28552	
5142	0	28424	
5143	0	28318	
5144	0	28272	
5145	0	28204	
5146	0	28111	
5147	0	27968	
5148	0	27896	
5149	0	27770	
5150	0	27633	
5151	0	27513	
5152	0	27356	
5153	0	27312	
5154	0	27166	
5155	0	27072	
5156	0	27000	
5157	0	26968	
5158	0	26872	
5159	0	26832	
5160	0	26816	
5161	0	26760	
5162	0	26772	
5163	0	26768	
5164	0	26796	
5165	0	26788	
5166	0	26764	
5167	0	26727	
5168	0	26688	
5169	0	26700	
5170	0	26582	
5171	0	26534	
5172	0	26498	
5173	0	26524	
5174	0	26426	
5175	0	26441	
5176	0	26440	
5177	0	26432	
5178	0	26490	
5179	0	26536	
5180	0	26572	
5181	0	26624	
5182	0	26693	
5183	0	26672	
5184	0	26774	
5185	0	26856	
5186	0	26872	
5187	0	26932	
5188	0	26974	
5189	0	26980	
5190	0	27009	
5191	0	27036	
5192	0	27082	
5193	0	27080	
5194	0	27148	
5195	0	27154	
5196	0	27343	
5197	0	27352	
5198	0	27428	
5199	0	27468	
5200	0	27492	
5201	0	27654	
5202	0	27772	
5203	0	27892	
5204	0	28014	
5205	0	28098	
5206	0	28156	
5207	0	28220	
5208	0	28308	
5209	0	28346	
5210	0	28437	
5211	0	28472	
5212	0	28515	
5213	0	28608	
5214	0	28616	
5215	0	28649	
5216	0	28772	
5217	0	28844	
5218	0	28928	
5219	0	29044	
5220	0	29162	
5221	0	29297	
5222	0	29384	
5223	0	29430	
5224	0	29612	
5225	0	29728	
5226	0	29840	
5227	0	29968	
5228	0	30004	
5229	0	30080	
5230	0	30100	
5231	0	30108	
5232	0	30096	
5233	0	30218	
5234	0	30220	
5235	0	30322	
5236	0	30372	
5237	0	30448	
5238	0	30528	
5239	0	30651	
5240	0	30738	
5241	0	30837	
5242	0	30968	
5243	0	30986	
5244	0	31116	
5245	0	31208	
5246	0	31260	
5247	0	31400	
5248	0	31440	
5249	0	31392	
5250	0	31500	
5251	0	31460	
5252	0	31460	
5253	0	31488	
5254	0	31552	
5255	0	31536	
5256	0	31648	
5257	0	31712	
5258	0	31752	
5259	0	31808	
5260	0	31816	
5261	0	31872	
5262	0	31992	
5263	0	32040	
5264	0	32109	
5265	0	32224	
5266	0	32236	
5267	0	32235	
5268	0	32277	
5269	0	32213	
5270	0	32220	
5271	0	32208	
5272	0	32128	
5273	0	32128	
5274	0	32140	
5275	0	32088	
5276	0	32189	
5277	0	32176	
5278	0	32164	
5279	0	32210	
5280	0	32172	
5281	0	32190	
5282	0	32220	
5283	0	32189	
5284	0	32235	
5285	0	32293	
5286	0	32265	
5287	0	32288	
5288	0	32293	
5289	0	32224	
5290	0	32206	
5291	0	32136	
5292	0	32065	
5293	0	32053	
5294	0	31980	
5295	0	31949	
5296	0	31890	
5297	0	31872	
5298	0	31856	
5299	0	31838	
5300	0	31772	
5301	0	31758	
5302	0	31768	
5303	0	31772	
5304	0	31746	
5305	0	31797	
5306	0	31744	
5307	0	31648	
5308	0	31668	
5309	0	31548	
5310	0	31468	
5311	0	31376	
5312	0	31273	
5313	0	31205	
5314	0	31188	
5315	0	31052	
5316	0	31049	
5317	0	30938	
5318	0	30872	
5319	0	30790	
5320	0	30744	
5321	0	30702	
5322	0	30688	
5323	0	30648	
5324	0	30644	
5325	0	30572	
5326	0	30566	
5327	0	30508	
5328	0	30431	
5329	0	30268	
5330	0	30248	
5331	0	30108	
5332	0	29981	
5333	0	29916	
5334	0	29832	
5335	0	29680	
5336	0	29620	
5337	0	29580	
5338	0	29484	
5339	0	29456	
5340	0	29382	
5341	0	29320	
5342	0	29252	
5343	0	29151	
5344	0	29176	
5345	0	29148	
5346	0	29114	
5347	0	29040	
5348	0	28856	
5349	0	28812	
5350	0	28706	
5351	0	28626	
5352	0	28482	
5353	0	28420	
5354	0	28268	
5355	0	28182	
5356	0	28121	
5357	0	28040	
5358	0	27928	
5359	0	27864	
5360	0	27832	
5361	0	27744	
5362	0	27716	
5363	0	27626	
5364	0	27620	
5365	0	27516	
5366	0	27456	
5367	0	27392	
5368	0	27336	
5369	0	27215	
5370	0	27092	
5371	0	26920	
5372	0	26840	
5373	0	26774	
5374	0	26636	
5375	0	26592	
5376	0	26448	
5377	0	26404	
5378	0	26342	
5379	0	26268	
5380	0	26192	
5381	0	26149	
5382	0	26080	
5383	0	26061	
5384	0	26005	
5385	0	25996	
5386	0	25973	
5387	0	25882	
5388	0	25761	
5389	0	25692	
5390	0	25580	
5391	0	25446	
5392	0	25352	
5393	0	25300	
5394	0	25232	
5395	0	25090	
5396	0	25024	
5397	0	25016	
5398	0	24880	
5399	0	24842	
5400	0	24718	
5401	0	24653	
5402	0	24638	
5403	0	24540	
5404	0	24514	
5405	0	24524	
5406	0	24478	
5407	0	24388	
5408	0	24280	
5409	0	24185	
5410	0	24116	
5411	0	23966	
5412	0	23830	
5413	0	23772	
5414	0	23618	
5415	0	23600	
5416	0	23536	
5417	0	23415	
5418	0	23452	
5419	0	23345	
5420	0	23237	
5421	0	23224	
5422	0	23194	
5423	0	23106	
5424	0	23047	
5425	0	22989	
5426	0	22970	
5427	0	22893	
5428	0	22816	
5429	0	22757	
5430	0	22644	
5431	0	22538	
5432	0	22393	
5433	0	22364	
5434	0	22261	
5435	0	22200	
5436	0	22181	
5437	0	22132	
5438	0	22052	
5439	0	21992	
5440	0	21969	
5441	0	21912	
5442	0	21857	
5443	0	21812	
5444	0	21798	
5445	0	21806	
5446	0	21773	
5447	0	21696	
5448	0	21688	
5449	0	21572	
5450	0	21537	
5451	0	21412	
5452	0	21344	
5453	0	21250	
5454	0	21170	
5455	0	21071	
5456	0	21084	
5457	0	21036	
5458	0	20980	
5459	0	20960	
5460	0	20908	
5461	0	20858	
5462	0	20868	
5463	0	20868	
5464	0	20817	
5465	0	20788	
5466	0	20777	
5467	0	20744	
5468	0	20737	
5469	0	20672	
5470	0	20569	
5471	0	20474	
5472	0	20344	
5473	0	20304	
5474	0	20266	
5475	0	20192	
5476	0	20152	
5477	0	20140	
5478	0	20133	
5479	0	20074	
5480	0	20016	
5481	0	20000	
5482	0	20020	
5483	0	19981	
5484	0	19989	
5485	0	19994	
5486	0	20014	
5487	0	19933	
5488	0	19852	
5489	0	19770	
5490	0	19730	
5491	0	19660	
5492	0	19572	
5493	0	19569	
5494	0	19421	
5495	0	19388	
5496	0	19367	
5497	0	19329	
5498	0	19262	
5499	0	19264	
5500	0	19198	
5501	0	19176	
5502	0	19168	
5503	0	19153	
5504	0	19176	
5505	0	19184	
5506	0	19138	
5507	0	19081	
5508	0	19061	
5509	0	19013	
5510	0	18960	
5511	0	18857	
5512	0	18798	
5513	0	18762	
5514	0	18721	
5515	0	18704	
5516	0	18646	
5517	0	18648	
5518	0	18636	
5519	0	18622	
5520	0	18590	
5521	0	18589	
5522	0	18598	
5523	0	18639	
5524	0	18705	
5525	0	18746	
5526	0	18786	
5527	0	18852	
5528	0	18945	
5529	0	18888	
5530	0	18943	
5531	0	19004	
5532	0	19014	
5533	0	19144	
5534	0	19268	
5535	0	19366	
5536	0	19592	
5537	0	19784	
5538	0	20008	
5539	0	20336	
5540	0	20578	
5541	0	20936	
5542	0	21313	
5543	0	21664	
5544	0	22117	
5545	0	22550	
5546	0	22989	
5547	0	23468	
5548	0	23913	
5549	0	24377	
5550	0	24846	
5551	0	25313	
5552	0	25786	
5553	0	26338	
5554	0	26856	
5555	0	27424	
5556	0	28047	
5557	0	28588	
5558	0	29176	
5559	0	29838	
5560	0	30423	
5561	0	31108	
5562	0	31765	
5563	0	32384	
5564	0	33090	
5565	0	33768	
5566	0	34400	
5567	0	35044	
5568	0	35632	
5569	0	36248	
5570	0	36816	
5571	0	37410	
5572	0	38008	
5573	0	38508	
5574	0	39106	
5575	0	39696	
5576	0	40280	
5577	0	40872	
5578	0	41468	
5579	0	42040	
5580	0	42583	
5581	0	43160	
5582	0	43776	
5583	0	44320	
5584	0	44880	
5585	0	45436	
5586	0	45932	
5587	0	46396	
5588	0	46881	
5589	0	47322	
5590	0	47764	
5591	0	48192	
5592	0	48532	
5593	0	49012	
5594	0	49408	
5595	0	49786	
5596	0	50213	
5597	0	50621	
5598	0	50972	
5599	0	51332	
5600	0	51684	
5601	0	52023	
5602	0	52384	
5603	0	52640	
5604	0	53052	
5605	0	53448	
5606	0	53672	
5607	0	53952	
5608	0	54192	
5609	0	54376	
5610	0	54646	
5611	0	54832	
5612	0	54976	
5613	0	55184	
5614	0	55372	
5615	0	55524	
5616	0	55692	
5617	0	55808	
5618	0	55980	
5619	0	56122	
5620	0	56239	
5621	0	56364	
5622	0	56524	
5623	0	56624	
5624	0	56736	
5625	0	56888	
5626	0	57016	
5627	0	57112	
5628	0	57152	
5629	0	57160	
5630	0	57080	
5631	0	57048	
5632	0	57036	
5633	0	57004	
5634	0	56972	
5635	0	56948	
5636	0	56912	
5637	0	56908	
5638	0	56804	
5639	0	56752	
5640	0	56688	
5641	0	56612	
5642	0	56628	
5643	0	56497	
5644	0	56444	
5645	0	56428	
5646	0	56356	
5647	0	56226	
5648	0	56120	
5649	0	55971	
5650	0	55712	
5651	0	55588	
5652	0	55352	
5653	0	55196	
5654	0	54992	
5655	0	54800	
5656	0	54645	
5657	0	54456	
5658	0	54256	
5659	0	54017	
5660	0	53840	
5661	0	53716	
5662	0	53542	
5663	0	53337	
5664	0	53168	
5665	0	53018	
5666	0	52800	
5667	0	52592	
5668	0	52368	
5669	0	52105	
5670	0	51880	
5671	0	51584	
5672	0	51244	
5673	0	51052	
5674	0	50772	
5675	0	50500	
5676	0	50334	
5677	0	50089	
5678	0	49844	
5679	0	49586	
5680	0	49336	
5681	0	49100	
5682	0	48920	
5683	0	48705	
5684	0	48517	
5685	0	48308	
5686	0	48012	
5687	0	47828	
5688	0	47572	
5689	0	47330	
5690	0	47072	
5691	0	46745	
5692	0	46448	
5693	0	46200	
5694	0	45958	
5695	0	45709	
5696	0	45504	
5697	0	45228	
5698	0	45040	
5699	0	44792	
5700	0	44564	
5701	0	44351	
5702	0	44152	
5703	0	43917	
5704	0	43692	
5705	0	43582	
5706	0	43348	
5707	0	43128	
5708	0	42908	
5709	0	42724	
5710	0	42496	
5711	0	42204	
5712	0	41975	
5713	0	41772	
5714	0	41528	
5715	0	41304	
5716	0	41108	
5717	0	40968	
5718	0	40768	
5719	0	40596	
5720	0	40376	
5721	0	40196	
5722	0	40026	
5723	0	39852	
5724	0	39736	
5725	0	39588	
5726	0	39360	
5727	0	39207	
5728	0	39060	
5729	0	38880	
5730	0	38692	
5731	0	38503	
5732	0	38240	
5733	0	38094	
5734	0	37869	
5735	0	37682	
5736	0	37548	
5737	0	37432	
5738	0	37245	
5739	0	37100	
5740	0	36972	
5741	0	36813	
5742	0	36684	
5743	0	36536	
5744	0	36396	
5745	0	36278	
5746	0	36150	
5747	0	35972	
5748	0	35835	
5749	0	35652	
5750	0	35493	
5751	0	35313	
5752	0	35081	
5753	0	34954	
5754	0	34816	
5755	0	34576	
5756	0	34448	
5757	0	34268	
5758	0	34152	
5759	0	34036	
5760	0	33888	
5761	0	33780	
5762	0	33668	
5763	0	33518	
5764	0	33402	
5765	0	33299	
5766	0	33170	
5767	0	33008	
5768	0	32892	
5769	0	32740	
5770	0	32563	
5771	0	32359	
5772	0	32208	
5773	0	32014	
5774	0	31885	
5775	0	31757	
5776	0	31560	
5777	0	31480	
5778	0	31353	
5779	0	31248	
5780	0	31136	
5781	0	31069	
5782	0	31004	
5783	0	30878	
5784	0	30796	
5785	0	30756	
5786	0	30690	
5787	0	30612	
5788	0	30500	
5789	0	30334	
5790	0	30232	
5791	0	30094	
5792	0	29990	
5793	0	29876	
5794	0	29848	
5795	0	29684	
5796	0	29584	
5797	0	29540	
5798	0	29508	
5799	0	29413	
5800	0	29393	
5801	0	29356	
5802	0	29358	
5803	0	29269	
5804	0	29269	
5805	0	29322	
5806	0	29272	
5807	0	29212	
5808	0	29188	
5809	0	29188	
5810	0	29142	
5811	0	29066	
5812	0	29060	
5813	0	28976	
5814	0	28909	
5815	0	28917	
5816	0	28872	
5817	0	28864	
5818	0	28883	
5819	0	28836	
5820	0	28890	
5821	0	28896	
5822	0	28948	
5823	0	28948	
5824	0	28997	
5825	0	29109	
5826	0	29144	
5827	0	29168	
5828	0	29184	
5829	0	29224	
5830	0	29200	
5831	0	29208	
5832	0	29182	
5833	0	29214	
5834	0	29241	
5835	0	29233	
5836	0	29312	
5837	0	29352	
5838	0	29382	
5839	0	29424	
5840	0	29494	
5841	0	29589	
5842	0	29672	
5843	0	29708	
5844	0	29764	
5845	0	29909	
5846	0	29970	
5847	0	30036	
5848	0	30092	
5849	0	30167	
5850	0	30180	
5851	0	30218	
5852	0	30190	
5853	0	30260	
5854	0	30328	
5855	0	30344	
5856	0	30428	
5857	0	30488	
5858	0	30552	
5859	0	30649	
5860	0	30760	
5861	0	30784	
5862	0	30954	
5863	0	30980	
5864	0	31116	
5865	0	31231	
5866	0	31308	
5867	0	31376	
5868	0	31404	
5869	0	31484	
5870	0	31502	
5871	0	31529	
5872	0	31529	
5873	0	31632	
5874	0	31636	
5875	0	31696	
5876	0	31808	
5877	0	31842	
5878	0	31872	
5879	0	31948	
5880	0	32048	
5881	0	32108	
5882	0	32216	
5883	0	32286	
5884	0	32356	
5885	0	32500	
5886	0	32578	
5887	0	32596	
5888	0	32618	
5889	0	32652	
5890	0	32682	
5891	0	32682	
5892	0	32610	
5893	0	32712	
5894	0	32704	
5895	0	32708	
5896	0	32716	
5897	0	32780	
5898	0	32772	
5899	0	32868	
5900	0	32920	
5901	0	32996	
5902	0	33084	
5903	0	33064	
5904	0	33121	
5905	0	33147	
5906	0	33204	
5907	0	33196	
5908	0	33228	
5909	0	33188	
5910	0	33233	
5911	0	33224	
5912	0	33159	
5913	0	33104	
5914	0	33140	
5915	0	33137	
5916	0	33122	
5917	0	33104	
5918	0	33096	
5919	0	33077	
5920	0	33080	
5921	0	33029	
5922	0	33104	
5923	0	33088	
5924	0	33111	
5925	0	33097	
5926	0	33080	
5927	0	33028	
5928	0	32980	
5929	0	32998	
5930	0	32932	
5931	0	32928	
5932	0	32796	
5933	0	32712	
5934	0	32674	
5935	0	32676	
5936	0	32628	
5937	0	32576	
5938	0	32525	
5939	0	32448	
5940	0	32457	
5941	0	32416	
5942	0	32415	
5943	0	32436	
5944	0	32428	
5945	0	32452	
5946	0	32384	
5947	0	32332	
5948	0	32222	
5949	0	32178	
5950	0	32104	
5951	0	31976	
5952	0	31896	
5953	0	31781	
5954	0	31690	
5955	0	31601	
5956	0	31604	
5957	0	31562	
5958	0	31464	
5959	0	31388	
5960	0	31338	
5961	0	31248	
5962	0	31234	
5963	0	31262	
5964	0	31160	
5965	0	31140	
5966	0	31062	
5967	0	31008	
5968	0	30992	
5969	0	30820	
5970	0	30729	
5971	0	30560	
5972	0	30505	
5973	0	30372	
5974	0	30368	
5975	0	30248	
5976	0	30216	
5977	0	30135	
5978	0	30040	
5979	0	29998	
5980	0	29924	
5981	0	29840	
5982	0	29812	
5983	0	29770	
5984	0	29680	
5985	0	29658	
5986	0	29623	
5987	0	29585	
5988	0	29519	
5989	0	29333	
5990	0	29258	
5991	0	29140	
5992	0	29018	
5993	0	28864	
5994	0	28800	
5995	0	28728	
5996	0	28626	
5997	0	28565	
5998	0	28512	
5999	0	28386	
6000	0	28329	
6001	0	28276	
6002	0	28226	
6003	0	28140	
6004	0	28101	
6005	0	28090	
6006	0	28002	
6007	0	27892	
6008	0	27824	
6009	0	27708	
6010	0	27598	
6011	0	27488	
6012	0	27328	
6013	0	27228	
6014	0	27125	
6015	0	26990	
6016	0	26935	
6017	0	26850	
6018	0	26735	
6019	0	26664	
6020	0	26604	
6021	0	26536	
6022	0	26468	
6023	0	26437	
6024	0	26385	
6025	0	26336	
6026	0	26306	
6027	0	26200	
6028	0	26152	
6029	0	26076	
6030	0	25948	
6031	0	25845	
6032	0	25712	
6033	0	25636	
6034	0	25540	
6035	0	25465	
6036	0	25423	
6037	0	25357	
6038	0	25239	
6039	0	25178	
6040	0	25064	
6041	0	25042	
6042	0	24992	
6043	0	24928	
6044	0	24856	
6045	0	24841	
6046	0	24786	
6047	0	24706	
6048	0	24680	
6049	0	24594	
6050	0	24542	
6051	0	24408	
6052	0	24284	
6053	0	24192	
6054	0	24087	
6055	0	23969	
6056	0	23908	
6057	0	23807	
6058	0	23817	
6059	0	23662	
6060	0	23680	
6061	0	23601	
6062	0	23600	
6063	0	23536	
6064	0	23530	
6065	0	23505	
6066	0	23482	
6067	0	23440	
6068	0	23348	
6069	0	23204	
6070	0	23150	
6071	0	23038	
6072	0	22922	
6073	0	22804	
6074	0	22730	
6075	0	22628	
6076	0	22604	
6077	0	22536	
6078	0	22480	
6079	0	22400	
6080	0	22400	
6081	0	22364	
6082	0	22332	
6083	0	22320	
6084	0	22257	
6085	0	22232	
6086	0	22240	
6087	0	22192	
6088	0	22156	
6089	0	22022	
6090	0	21944	
6091	0	21878	
6092	0	21754	
6093	0	21721	
6094	0	21664	
6095	0	21641	
6096	0	21574	
6097	0	21489	
6098	0	21469	
6099	0	21448	
6100	0	21416	
6101	0	21370	
6102	0	21436	
6103	0	21445	
6104	0	21340	
6105	0	21366	
6106	0	21364	
6107	0	21316	
6108	0	21225	
6109	0	21173	
6110	0	21111	
6111	0	21048	
6112	0	20968	
6113	0	20908	
6114	0	20889	
6115	0	20788	
6116	0	20752	
6117	0	20733	
6118	0	20674	
6119	0	20646	
6120	0	20580	
6121	0	20590	
6122	0	20601	
6123	0	20522	
6124	0	20545	
6125	0	20608	
6126	0	20580	
6127	0	20508	
6128	0	20510	
6129	0	20444	
6130	0	20421	
6131	0	20333	
6132	0	20204	
6133	0	20200	
6134	0	20160	
6135	0	20052	
6136	0	20000	
6137	0	20020	
6138	0	19948	
6139	0	19915	
6140	0	19910	
6141	0	19874	
6142	0	19873	
6143	0	19861	
6144	0	19857	
6145	0	19908	
6146	0	19895	
6147	0	19887	
6148	0	19829	
6149	0	19810	
6150	0	19748	
6151	0	19632	
6152	0	19573	
6153	0	19484	
6154	0	19478	
6155	0	19468	
6156	0	19361	
6157	0	19406	
6158	0	19397	
6159	0	19378	
6160	0	19320	
6161	0	19332	
6162	0	19365	
6163	0	19352	
6164	0	19364	
6165	0	19418	
6166	0	19492	
6167	0	19440	
6168	0	19518	
6169	0	19434	
6170	0	19454	
6171	0	19418	
6172	0	19468	
6173	0	19472	
6174	0	19482	
6175	0	19550	
6176	0	19589	
6177	0	19674	
6178	0	19761	
6179	0	19868	
6180	0	19970	
6181	0	20108	
6182	0	20312	
6183	0	20532	
6184	0	20758	
6185	0	21056	
6186	0	21341	
6187	0	21650	
6188	0	21876	
6189	0	22216	
6190	0	22569	
6191	0	22934	
6192	0	23252	
6193	0	23658	
6194	0	24144	
6195	0	24604	
6196	0	25026	
6197	0	25576	
6198	0	26073	
6199	0	26594	
6200	0	27186	
6201	0	27710	
6202	0	28316	
6203	0	28932	
6204	0	29517	
6205	0	30128	
6206	0	30765	
6207	0	31383	
6208	0	31964	
6209	0	32540	
6210	0	33128	
6211	0	33697	
6212	0	34215	
6213	0	34848	
6214	0	35450	
6215	0	35994	
6216	0	36580	
6217	0	37188	
6218	0	37804	
6219	0	38372	
6220	0	39002	
6221	0	39568	
6222	0	40208	
6223	0	40800	
6224	0	41370	
6225	0	42016	
6226	0	42564	
6227	0	43040	
6228	0	43608	
6229	0	44124	
6230	0	44603	
6231	0	45056	
6232	0	45560	
6233	0	46040	
6234	0	46496	
6235	0	46900	
6236	0	47321	
6237	0	47770	
6238	0	48176	
6239	0	48650	
6240	0	49088	
6241	0	49474	
6242	0	49888	
6243	0	50320	
6244	0	50677	
6245	0	51056	
6246	0	51432	
6247	0	51660	
6248	0	52012	
6249	0	52344	
6250	0	52632	
6251	0	52912	
6252	0	53036	
6253	0	53308	
6254	0	53512	
6255	0	53728	
6256	0	53932	
6257	0	54176	
6258	0	54384	
6259	0	54500	
6260	0	54720	
6261	0	54884	
6262	0	55096	
6263	0	55280	
6264	0	55440	
6265	0	55596	
6266	0	55740	
6267	0	55836	
6268	0	55929	
6269	0	56012	
6270	0	56044	
6271	0	56128	
6272	0	56112	
6273	0	56108	
6274	0	56152	
6275	0	56080	
6276	0	56044	
6277	0	56084	
6278	0	56100	
6279	0	56064	
6280	0	56024	
6281	0	55980	
6282	0	56017	
6283	0	55976	
6284	0	55916	
6285	0	55908	
6286	0	55875	
6287	0	55760	
6288	0	55641	
6289	0	55560	
6290	0	55408	
6291	0	55232	
6292	0	55040	
6293	0	54912	
6294	0	54792	
6295	0	54584	
6296	0	54381	
6297	0	54308	
6298	0	54160	
6299	0	53954	
6300	0	53768	
6301	0	53600	
6302	0	53430	
6303	0	53280	
6304	0	53074	
6305	0	52968	
6306	0	52756	
6307	0	52550	
6308	0	52352	
6309	0	52060	
6310	0	51865	
6311	0	51528	
6312	0	51248	
6313	0	51072	
6314	0	50824	
6315	0	50644	
6316	0	50324	
6317	0	50138	
6318	0	49932	
6319	0	49704	
6320	0	49504	
6321	0	49306	
6322	0	49122	
6323	0	48896	
6324	0	48706	
6325	0	48504	
6326	0	48320	
6327	0	48074	
6328	0	47786	
6329	0	47504	
6330	0	47296	
6331	0	47002	
6332	0	46648	
6333	0	46448	
6334	0	46240	
6335	0	45952	
6336	0	45712	
6337	0	45444	
6338	0	45183	
6339	0	44932	
6340	0	44756	
6341	0	44559	
6342	0	44370	
6343	0	44124	
6344	0	43952	
6345	0	43796	
6346	0	43552	
6347	0	43313	
6348	0	43108	
6349	0	42864	
6350	0	42586	
6351	0	42388	
6352	0	42092	
6353	0	41888	
6354	0	41636	
6355	0	41484	
6356	0	41240	
6357	0	40992	
6358	0	40755	
6359	0	40576	
6360	0	40376	
6361	0	40210	
6362	0	40060	
6363	0	39852	
6364	0	39680	
6365	0	39552	
6366	0	39388	
6367	0	39237	
6368	0	39000	
6369	0	38892	
6370	0	38664	
6371	0	38464	
6372	0	38188	
6373	0	38028	
6374	0	37872	
6375	0	37664	
6376	0	37570	
6377	0	37374	
6378	0	37152	
6379	0	37056	
6380	0	36850	
6381	0	36736	
6382	0	36704	
6383	0	36532	
6384	0	36362	
6385	0	36237	
6386	0	36148	
6387	0	36008	
6388	0	35856	
6389	0	35624	
6390	0	35510	
6391	0	35376	
6392	0	35204	
6393	0	35005	
6394	0	34828	
6395	0	34630	
6396	0	34500	
6397	0	34359	
6398	0	34180	
6399	0	34048	
6400	0	33917	
6401	0	33774	
6402	0	33644	
6403	0	33495	
6404	0	33356	
6405	0	33268	
6406	0	33164	
6407	0	33013	
6408	0	32884	
6409	0	32668	
6410	0	32546	
6411	0	32396	
6412	0	32145	
6413	0	31976	
6414	0	31868	
6415	0	31732	
6416	0	31589	
6417	0	31500	
6418	0	31340	
6419	0	31230	
6420	0	31117	
6421	0	31064	
6422	0	30944	
6423	0	30860	
6424	0	30797	
6425	0	30728	
6426	0	30667	
6427	0	30524	
6428	0	30432	
6429	0	30298	
6430	0	30108	
6431	0	30048	
6432	0	29905	
6433	0	29772	
6434	0	29764	
6435	0	29632	
6436	0	29524	
6437	0	29506	
6438	0	29421	
6439	0	29348	
6440	0	29326	
6441	0	29224	
6442	0	29229	
6443	0	29206	
6444	0	29181	
6445	0	29152	
6446	0	29160	
6447	0	29072	
6448	0	29036	
6449	0	28978	
6450	0	28960	
6451	0	28862	
6452	0	28803	
6453	0	28700	
6454	0	28741	
6455	0	28694	
6456	0	28626	
6457	0	28596	
6458	0	28640	
6459	0	28672	
6460	0	28664	
6461	0	28650	
6462	0	28752	
6463	0	28826	
6464	0	28792	
6465	0	28856	
6466	0	28892	
6467	0	28920	
6468	0	28958	
6469	0	28976	
6470	0	28976	
6471	0	28932	
6472	0	28912	
6473	0	28938	
6474	0	28974	
6475	0	28960	
6476	0	28992	
6477	0	29094	
6478	0	29122	
6479	0	29206	
6480	0	29236	
6481	0	29284	
6482	0	29320	
6483	0	29503	
6484	0	29532	
6485	0	29623	
6486	0	29684	
6487	0	29822	
6488	0	29836	
6489	0	29855	
6490	0	29970	
6491	0	30048	
6492	0	30046	
6493	0	30044	
6494	0	30058	
6495	0	30152	
6496	0	30238	
6497	0	30308	
6498	0	30396	
6499	0	30472	
6500	0	30546	
6501	0	30608	
6502	0	30666	
6503	0	30776	
6504	0	30857	
6505	0	30952	
6506	0	31076	
6507	0	31168	
6508	0	31220	
6509	0	31296	
6510	0	31369	
6511	0	31446	
6512	0	31460	
6513	0	31466	
6514	0	31474	
6515	0	31488	
6516	0	31604	
6517	0	31697	
6518	0	31767	
6519	0	31790	
6520	0	31900	
6521	0	31944	
6522	0	32049	
6523	0	32144	
6524	0	32188	
6525	0	32248	
6526	0	32350	
6527	0	32426	
6528	0	32484	
6529	0	32473	
6530	0	32544	
6531	0	32588	
6532	0	32562	
6533	0	32565	
6534	0	32646	
6535	0	32656	
6536	0	32660	
6537	0	32754	
6538	0	32808	
6539	0	32825	
6540	0	32828	
6541	0	32864	
6542	0	32912	
6543	0	32984	
6544	0	33016	
6545	0	33096	
6546	0	33152	
6547	0	33170	
6548	0	33192	
6549	0	33194	
6550	0	33224	
6551	0	33206	
6552	0	33200	
6553	0	33158	
6554	0	33168	
6555	0	33132	
6556	0	33136	
6557	0	33172	
6558	0	33152	
6559	0	33157	
6560	0	33192	
6561	0	33192	
6562	0	33188	
6563	0	33176	
6564	0	33186	
6565	0	33244	
6566	0	33288	
6567	0	33244	
6568	0	33268	
6569	0	33216	
6570	0	33128	
6571	0	33184	
6572	0	33116	
6573	0	33037	
6574	0	32980	
6575	0	32928	
6576	0	32846	
6577	0	32858	
6578	0	32808	
6579	0	32760	
6580	0	32788	
6581	0	32704	
6582	0	32768	
6583	0	32692	
6584	0	32684	
6585	0	32714	
6586	0	32704	
6587	0	32748	
6588	0	32618	
6589	0	32603	
6590	0	32488	
6591	0	32416	
6592	0	32312	
6593	0	32177	
6594	0	32144	
6595	0	32040	
6596	0	31948	
6597	0	31900	
6598	0	31852	
6599	0	31784	
6600	0	31754	
6601	0	31704	
6602	0	31658	
6603	0	31618	
6604	0	31564	
6605	0	31552	
6606	0	31504	
6607	0	31456	
6608	0	31424	
6609	0	31424	
6610	0	31288	
6611	0	31184	
6612	0	31032	
6613	0	30884	
6614	0	30864	
6615	0	30764	
6616	0	30684	
6617	0	30614	
6618	0	30532	
6619	0	30496	
6620	0	30426	
6621	0	30325	
6622	0	30248	
6623	0	30240	
6624	0	30176	
6625	0	30128	
6626	0	30108	
6627	0	30033	
6628	0	29928	
6629	0	29860	
6630	0	29772	
6631	0	29640	
6632	0	29524	
6633	0	29354	
6634	0	29284	
6635	0	29190	
6636	0	29096	
6637	0	28976	
6638	0	28924	
6639	0	28880	
6640	0	28769	
6641	0	28691	
6642	0	28689	
6643	0	28616	
6644	0	28516	
6645	0	28470	
6646	0	28423	
6647	0	28336	
6648	0	28250	
6649	0	28132	
6650	0	28038	
6651	0	27924	
6652	0	27821	
6653	0	27685	
6654	0	27570	
6655	0	27448	
6656	0	27336	
6657	0	27364	
6658	0	27247	
6659	0	27156	
6660	0	27084	
6661	0	27016	
6662	0	26953	
6663	0	26893	
6664	0	26836	
6665	0	26865	
6666	0	26769	
6667	0	26681	
6668	0	26642	
6669	0	26556	
6670	0	26438	
6671	0	26389	
6672	0	26266	
6673	0	26096	
6674	0	25999	
6675	0	25940	
6676	0	25840	
6677	0	25780	
6678	0	25708	
6679	0	25624	
6680	0	25524	
6681	0	25476	
6682	0	25422	
6683	0	25396	
6684	0	25277	
6685	0	25306	
6686	0	25254	
6687	0	25200	
6688	0	25090	
6689	0	25025	
6690	0	24932	
6691	0	24780	
6692	0	24734	
6693	0	24569	
6694	0	24482	
6695	0	24434	
6696	0	24326	
6697	0	24236	
6698	0	24192	
6699	0	24104	
6700	0	24056	
6701	0	24020	
6702	0	24016	
6703	0	23994	
6704	0	23894	
6705	0	23912	
6706	0	23884	
6707	0	23832	
6708	0	23748	
6709	0	23652	
6710	0	23606	
6711	0	23497	
6712	0	23392	
6713	0	23344	
6714	0	23246	
6715	0	23176	
6716	0	23152	
6717	0	23080	
6718	0	23007	
6719	0	22960	
6720	0	22958	
6721	0	22884	
6722	0	22824	
6723	0	22880	
6724	0	22779	
6725	0	22818	
6726	0	22778	
6727	0	22773	
6728	0	22700	
6729	0	22648	
6730	0	22528	
6731	0	22432	
6732	0	22334	
6733	0	22216	
6734	0	22159	
6735	0	22113	
6736	0	22060	
6737	0	21992	
6738	0	21968	
6739	0	21872	
6740	0	21850	
6741	0	21812	
6742	0	21784	
6743	0	21804	
6744	0	21792	
6745	0	21824	
6746	0	21781	
6747	0	21774	
6748	0	21705	
6749	0	21682	
6750	0	21584	
6751	0	21513	
6752	0	21433	
6753	0	21358	
6754	0	21300	
6755	0	21206	
6756	0	21208	
6757	0	21154	
6758	0	21145	
6759	0	21092	
6760	0	21072	
6761	0	21106	
6762	0	21076	
6763	0	21022	
6764	0	21069	
6765	0	21060	
6766	0	21074	
6767	0	21058	
6768	0	21061	
6769	0	21015	
6770	0	20983	
6771	0	20890	
6772	0	20800	
6773	0	20711	
6774	0	20648	
6775	0	20658	
6776	0	20631	
6777	0	20624	
6778	0	20602	
6779	0	20544	
6780	0	20536	
6781	0	20457	
6782	0	20504	
6783	0	20470	
6784	0	20460	
6785	0	20482	
6786	0	20444	
6787	0	20438	
6788	0	20396	
6789	0	20388	
6790	0	20300	
6791	0	20252	
6792	0	20138	
6793	0	20026	
6794	0	20060	
6795	0	20038	
6796	0	19966	
6797	0	20004	
6798	0	19914	
6799	0	19856	
6800	0	19872	
6801	0	19784	
6802	0	19806	
6803	0	19892	
6804	0	19888	
6805	0	19889	
6806	0	19932	
6807	0	19911	
6808	0	19885	
6809	0	19798	
6810	0	19771	
6811	0	19709	
6812	0	19624	
6813	0	19600	
6814	0	19552	
6815	0	19552	
6816	0	19516	
6817	0	19492	
6818	0	19481	
6819	0	19460	
6820	0	19504	
6821	0	19513	
6822	0	19565	
6823	0	19557	
6824	0	19484	
6825	0	19572	
6826	0	19596	
6827	0	19618	
6828	0	19620	
6829	0	19650	
6830	0	19643	
6831	0	19652	
6832	0	19645	
6833	0	19598	
6834	0	19708	
6835	0	19708	
6836	0	19736	
6837	0	19790	
6838	0	19912	
6839	0	20034	
6840	0	20172	
6841	0	20318	
6842	0	20612	
6843	0	20809	
6844	0	21007	
6845	0	21258	
6846	0	21568	
6847	0	21804	
6848	0	22148	
6849	0	22457	
6850	0	22780	
6851	0	23184	
6852	0	23590	
6853	0	23932	
6854	0	24352	
6855	0	24757	
6856	0	25289	
6857	0	25700	
6858	0	26208	
6859	0	26740	
6860	0	27268	
6861	0	27822	
6862	0	28403	
6863	0	29004	
6864	0	29568	
6865	0	30196	
6866	0	30792	
6867	0	31404	
6868	0	31981	
6869	0	32556	
6870	0	33100	
6871	0	33656	
6872	0	34260	
6873	0	34790	
6874	0	35426	
6875	0	35942	
6876	0	36508	
6877	0	37148	
6878	0	37732	
6879	0	38324	
6880	0	38869	
6881	0	39442	
6882	0	40016	
6883	0	40569	
6884	0	41148	
6885	0	41748	
6886	0	42300	
6887	0	42844	
6888	0	43382	
6889	0	43856	
6890	0	44304	
6891	0	44812	
6892	0	45248	
6893	0	45688	
6894	0	46060	
6895	0	46532	
6896	0	46952	
6897	0	47368	
6898	0	47784	
6899	0	48174	
6900	0	48516	
6901	0	48932	
6902	0	49312	
6903	0	49696	
6904	0	50020	
6905	0	50400	
6906	0	50800	
6907	0	51048	
6908	0	51352	
6909	0	51668	
6910	0	51884	
6911	0	52080	
6912	0	52204	
6913	0	52430	
6914	0	52732	
6915	0	52868	
6916	0	53064	
6917	0	53268	
6918	0	53386	
6919	0	53580	
6920	0	53752	
6921	0	53897	
6922	0	53992	
6923	0	54176	
6924	0	54320	
6925	0	54448	
6926	0	54594	
6927	0	54652	
6928	0	54740	
6929	0	54756	
6930	0	54784	
6931	0	54784	
6932	0	54772	
6933	0	54700	
6934	0	54712	
6935	0	54702	
6936	0	54730	
6937	0	54708	
6938	0	54680	
6939	0	54656	
6940	0	54597	
6941	0	54582	
6942	0	54577	
6943	0	54500	
6944	0	54376	
6945	0	54392	
6946	0	54376	
6947	0	54282	
6948	0	54208	
6949	0	54053	
6950	0	53964	
6951	0	53784	
6952	0	53576	
6953	0	53376	
6954	0	53236	
6955	0	53004	
6956	0	52881	
6957	0	52698	
6958	0	52532	
6959	0	52416	
6960	0	52224	
6961	0	52074	
6962	0	51880	
6963	0	51748	
6964	0	51560	
6965	0	51352	
6966	0	51180	
6967	0	51019	
6968	0	50796	
6969	0	50496	
6970	0	50248	
6971	0	50032	
6972	0	49733	
6973	0	49456	
6974	0	49248	
6975	0	49013	
6976	0	48704	
6977	0	48528	
6978	0	48280	
6979	0	48012	
6980	0	47745	
6981	0	47529	
6982	0	47308	
6983	0	47096	
6984	0	46848	
6985	0	46628	
6986	0	46400	
6987	0	46176	
6988	0	45916	
6989	0	45685	
6990	0	45400	
6991	0	45160	
6992	0	44884	
6993	0	44596	
6994	0	44348	
6995	0	44076	
6996	0	43831	
6997	0	43510	
6998	0	43268	
6999	0	43016	
7000	0	42815	
7001	0	42568	
7002	0	42336	
7003	0	42120	
7004	0	41876	
7005	0	41622	
7006	0	41472	
7007	0	41264	
7008	0	41050	
7009	0	40800	
7010	0	40544	
7011	0	40284	
7012	0	39992	
7013	0	39720	
7014	0	39564	
7015	0	39269	
7016	0	39040	
7017	0	38860	
7018	0	38652	
7019	0	38432	
7020	0	38224	
7021	0	38011	
7022	0	37854	
7023	0	37692	
7024	0	37512	
7025	0	37364	
7026	0	37196	
7027	0	36976	
7028	0	36820	
7029	0	36608	
7030	0	36420	
7031	0	36176	
7032	0	35945	
7033	0	35733	
7034	0	35586	
7035	0	35401	
7036	0	35184	
7037	0	35012	
7038	0	34797	
7039	0	34612	
7040	0	34492	
7041	0	34336	
7042	0	34157	
7043	0	34024	
7044	0	33872	
7045	0	33728	
7046	0	33632	
7047	0	33472	
7048	0	33344	
7049	0	33119	
7050	0	32924	
7051	0	32754	
7052	0	32585	
7053	0	32388	
7054	0	32172	
7055	0	32044	
7056	0	31785	
7057	0	31724	
7058	0	31528	
7059	0	31390	
7060	0	31240	
7061	0	31120	
7062	0	30984	
7063	0	30886	
7064	0	30714	
7065	0	30590	
7066	0	30488	
7067	0	30332	
7068	0	30176	
7069	0	30008	
7070	0	29824	
7071	0	29616	
7072	0	29440	
7073	0	29308	
7074	0	29120	
7075	0	29020	
7076	0	28847	
7077	0	28688	
7078	0	28531	
7079	0	28392	
7080	0	28284	
7081	0	28192	
7082	0	28069	
7083	0	27980	
7084	0	27897	
7085	0	27776	
7086	0	27684	
7087	0	27632	
7088	0	27530	
7089	0	27393	
7090	0	27228	
7091	0	27105	
7092	0	26996	
7093	0	26868	
7094	0	26736	
7095	0	26660	
7096	0	26545	
7097	0	26444	
7098	0	26343	
7099	0	26248	
7100	0	26184	
7101	0	26132	
7102	0	26157	
7103	0	26154	
7104	0	26148	
7105	0	26172	
7106	0	26153	
7107	0	26172	
7108	0	26164	
7109	0	26116	
7110	0	26048	
7111	0	26018	
7112	0	25944	
7113	0	25900	
7114	0	25896	
7115	0	25876	
7116	0	25921	
7117	0	25888	
7118	0	25913	
7119	0	25876	
7120	0	25898	
7121	0	25892	
7122	0	25965	
7123	0	26024	
7124	0	26100	
7125	0	26144	
7126	0	26189	
7127	0	26229	
7128	0	26272	
7129	0	26304	
7130	0	26348	
7131	0	26401	
7132	0	26416	
7133	0	26396	
7134	0	26440	
7135	0	26506	
7136	0	26509	
7137	0	26580	
7138	0	26629	
7139	0	26738	
7140	0	26773	
7141	0	26834	
7142	0	26921	
7143	0	27066	
7144	0	27153	
7145	0	27226	
7146	0	27373	
7147	0	27472	
7148	0	27552	
7149	0	27643	
7150	0	27688	
7151	0	27725	
7152	0	27824	
7153	0	27800	
7154	0	27853	
7155	0	27960	
7156	0	27982	
7157	0	28164	
7158	0	28208	
7159	0	28300	
7160	0	28368	
7161	0	28424	
7162	0	28520	
7163	0	28696	
7164	0	28745	
7165	0	28869	
7166	0	29032	
7167	0	29074	
7168	0	29192	
7169	0	29284	
7170	0	29342	
7171	0	29409	
7172	0	29453	
7173	0	29420	
7174	0	29512	
7175	0	29568	
7176	0	29632	
7177	0	29701	
7178	0	29808	
7179	0	29856	
7180	0	29970	
7181	0	30065	
7182	0	30146	
7183	0	30278	
7184	0	30356	
7185	0	30472	
7186	0	30592	
7187	0	30653	
7188	0	30690	
7189	0	30748	
7190	0	30816	
7191	0	30844	
7192	0	30880	
7193	0	30912	
7194	0	30936	
7195	0	31023	
7196	0	30981	
7197	0	31114	
7198	0	31124	
7199	0	31141	
7200	0	31202	
7201	0	31224	
7202	0	31296	
7203	0	31410	
7204	0	31473	
7205	0	31536	
7206	0	31600	
7207	0	31588	
7208	0	31673	
7209	0	31682	
7210	0	31688	
7211	0	31661	
7212	0	31648	
7213	0	31648	
7214	0	31674	
7215	0	31668	
7216	0	31672	
7217	0	31645	
7218	0	31628	
7219	0	31605	
7220	0	31664	
7221	0	31645	
7222	0	31640	
7223	0	31700	
7224	0	31680	
7225	0	31658	
7226	0	31706	
7227	0	31700	
7228	0	31712	
7229	0	31684	
7230	0	31636	
7231	0	31601	
7232	0	31548	
7233	0	31398	
7234	0	31388	
7235	0	31382	
7236	0	31383	
7237	0	31296	
7238	0	31232	
7239	0	31216	
7240	0	31181	
7241	0	31164	
7242	0	31170	
7243	0	31098	
7244	0	31072	
7245	0	31062	
7246	0	31100	
7247	0	31105	
7248	0	31040	
7249	0	30956	
7250	0	30962	
7251	0	30868	
7252	0	30709	
7253	0	30616	
7254	0	30581	
7255	0	30432	
7256	0	30416	
7257	0	30272	
7258	0	30280	
7259	0	30220	
7260	0	30144	
7261	0	30080	
7262	0	30053	
7263	0	30008	
7264	0	29990	
7265	0	29942	
7266	0	29901	
7267	0	29849	
7268	0	29780	
7269	0	29729	
7270	0	29612	
7271	0	29468	
7272	0	29364	
7273	0	29260	
7274	0	29120	
7275	0	29090	
7276	0	29024	
7277	0	28926	
7278	0	28940	
7279	0	28855	
7280	0	28778	
7281	0	28730	
7282	0	28653	
7283	0	28604	
7284	0	28573	
7285	0	28520	
7286	0	28504	
7287	0	28421	
7288	0	28332	
7289	0	28250	
7290	0	28140	
7291	0	27988	
7292	0	27924	
7293	0	27781	
7294	0	27648	
7295	0	27569	
7296	0	27470	
7297	0	27369	
7298	0	27280	
7299	0	27196	
7300	0	27120	
7301	0	27052	
7302	0	26984	
7303	0	26974	
7304	0	26912	
7305	0	26860	
7306	0	26829	
7307	0	26769	
7308	0	26705	
7309	0	26612	
7310	0	26530	
7311	0	26452	
7312	0	26312	
7313	0	26149	
7314	0	26074	
7315	0	25960	
7316	0	25884	
7317	0	25796	
7318	0	25668	
7319	0	25608	
7320	0	25552	
7321	0	25452	
7322	0	25446	
7323	0	25445	
7324	0	25384	
7325	0	25306	
7326	0	25250	
7327	0	25220	
7328	0	25137	
7329	0	25018	
7330	0	24948	
7331	0	24849	
7332	0	24654	
7333	0	24566	
7334	0	24448	
7335	0	24354	
7336	0	24272	
7337	0	24176	
7338	0	24128	
7339	0	24061	
7340	0	23956	
7341	0	23914	
7342	0	23848	
7343	0	23814	
7344	0	23780	
7345	0	23736	
7346	0	23744	
7347	0	23675	
7348	0	23544	
7349	0	23424	
7350	0	23350	
7351	0	23206	
7352	0	23144	
7353	0	22972	
7354	0	22871	
7355	0	22794	
7356	0	22605	
7357	0	22608	
7358	0	22566	
7359	0	22468	
7360	0	22406	
7361	0	22313	
7362	0	22221	
7363	0	22194	
7364	0	22142	
7365	0	22064	
7366	0	22102	
7367	0	22056	
7368	0	22016	
7369	0	21937	
7370	0	21848	
7371	0	21740	
7372	0	21680	
7373	0	21488	
7374	0	21434	
7375	0	21300	
7376	0	21204	
7377	0	21153	
7378	0	21076	
7379	0	21045	
7380	0	20972	
7381	0	20944	
7382	0	20896	
7383	0	20866	
7384	0	20820	
7385	0	20825	
7386	0	20772	
7387	0	20785	
7388	0	20678	
7389	0	20684	
7390	0	20583	
7391	0	20485	
7392	0	20404	
7393	0	20258	
7394	0	20196	
7395	0	20120	
7396	0	20040	
7397	0	19976	
7398	0	19886	
7399	0	19881	
7400	0	19865	
7401	0	19864	
7402	0	19770	
7403	0	19864	
7404	0	19816	
7405	0	19789	
7406	0	19752	
7407	0	19772	
7408	0	19660	
7409	0	19700	
7410	0	19540	
7411	0	19472	
7412	0	19367	
7413	0	19328	
7414	0	19216	
7415	0	19231	
7416	0	19112	
7417	0	19072	
7418	0	18996	
7419	0	18922	
7420	0	18873	
7421	0	18856	
7422	0	18796	
7423	0	18804	
7424	0	18805	
7425	0	18826	
7426	0	18816	
7427	0	18816	
7428	0	18776	
7429	0	18752	
7430	0	18638	
7431	0	18560	
7432	0	18509	
7433	0	18428	
7434	0	18361	
7435	0	18384	
7436	0	18272	
7437	0	18212	
7438	0	18224	
7439	0	18218	
7440	0	18216	
7441	0	18168	
7442	0	18184	
7443	0	18184	
7444	0	18131	
7445	0	18161	
7446	0	18132	
7447	0	18128	
7448	0	18065	
7449	0	18056	
7450	0	18012	
7451	0	17948	
7452	0	17841	
7453	0	17735	
7454	0	17750	
7455	0	17646	
7456	0	17616	
7457	0	17612	
7458	0	17602	
7459	0	17512	
7460	0	17488	
7461	0	17459	
7462	0	17513	
7463	0	17484	
7464	0	17463	
7465	0	17497	
7466	0	17457	
7467	0	17460	
7468	0	17456	
7469	0	17434	
7470	0	17420	
7471	0	17384	
7472	0	17338	
7473	0	17226	
7474	0	17233	
7475	0	17174	
7476	0	17189	
7477	0	17197	
7478	0	17182	
7479	0	17204	
7480	0	17200	
7481	0	17234	
7482	0	17264	
7483	0	17376	
7484	0	17464	
7485	0	17537	
7486	0	17577	
7487	0	17704	
7488	0	17814	
7489	0	17960	
7490	0	18096	
7491	0	18189	
7492	0	18306	
7493	0	18512	
7494	0	18716	
7495	0	18997	
7496	0	19296	
7497	0	19532	
7498	0	19855	
7499	0	20198	
7500	0	20580	
7501	0	20950	
7502	0	21385	
7503	0	21920	
7504	0	22364	
7505	0	22824	
7506	0	23331	
7507	0	23920	
7508	0	24420	
7509	0	24890	
7510	0	25428	
7511	0	25936	
7512	0	26478	
7513	0	27005	
7514	0	27556	
7515	0	28145	
7516	0	28718	
7517	0	29230	
7518	0	29904	
7519	0	30502	
7520	0	31085	
7521	0	31656	
7522	0	32352	
7523	0	33028	
7524	0	33612	
7525	0	34200	
7526	0	34882	
7527	0	35468	
7528	0	36056	
7529	0	36624	
7530	0	37239	
7531	0	37776	
7532	0	38256	
7533	0	38762	
7534	0	39288	
7535	0	39836	
7536	0	40336	
7537	0	40844	
7538	0	41372	
7539	0	41882	
7540	0	42372	
7541	0	42846	
7542	0	43384	
7543	0	43913	
7544	0	44380	
7545	0	44861	
7546	0	45324	
7547	0	45760	
7548	0	46172	
7549	0	46488	
7550	0	46932	
7551	0	47277	
7552	0	47557	
7553	0	47872	
7554	0	48192	
7555	0	48528	
7556	0	48824	
7557	0	49092	
7558	0	49404	
7559	0	49696	
7560	0	49952	
7561	0	50260	
7562	0	50472	
7563	0	50752	
7564	0	50944	
7565	0	51200	
7566	0	51453	
7567	0	51672	
7568	0	51852	
7569	0	51992	
7570	0	52136	
7571	0	52278	
7572	0	52340	
7573	0	52488	
7574	0	52524	
7575	0	52591	
7576	0	52688	
7577	0	52812	
7578	0	52896	
7579	0	52928	
7580	0	53040	
7581	0	53072	
7582	0	53152	
7583	0	53232	
7584	0	53280	
7585	0	53344	
7586	0	53364	
7587	0	53402	
7588	0	53390	
7589	0	53364	
7590	0	53228	
7591	0	53204	
7592	0	53032	
7593	0	52984	
7594	0	52901	
7595	0	52776	
7596	0	52700	
7597	0	52628	
7598	0	52512	
7599	0	52476	
7600	0	52352	
7601	0	52272	
7602	0	52192	
7603	0	52112	
7604	0	51984	
7605	0	51863	
7606	0	51762	
7607	0	51616	
7608	0	51420	
7609	0	51252	
7610	0	51080	
7611	0	50862	
7612	0	50640	
7613	0	50404	
7614	0	50248	
7615	0	50028	
7616	0	49876	
7617	0	49624	
7618	0	49456	
7619	0	49242	
7620	0	49040	
7621	0	48864	
7622	0	48652	
7623	0	48472	
7624	0	48280	
7625	0	48076	
7626	0	47953	
7627	0	47744	
7628	0	47512	
7629	0	47249	
7630	0	46956	
7631	0	46700	
7632	0	46386	
7633	0	46144	
7634	0	45854	
7635	0	45592	
7636	0	45332	
7637	0	45096	
7638	0	44956	
7639	0	44684	
7640	0	44407	
7641	0	44172	
7642	0	43940	
7643	0	43712	
7644	0	43516	
7645	0	43278	
7646	0	43084	
7647	0	42908	
7648	0	42652	
7649	0	42408	
7650	0	42228	
7651	0	41928	
7652	0	41604	
7653	0	41363	
7654	0	41073	
7655	0	40846	
7656	0	40600	
7657	0	40288	
7658	0	40088	
7659	0	39862	
7660	0	39636	
7661	0	39432	
7662	0	39232	
7663	0	39048	
7664	0	38816	
7665	0	38640	
7666	0	38452	
7667	0	38236	
7668	0	37992	
7669	0	37794	
7670	0	37530	
7671	0	37248	
7672	0	37048	
7673	0	36728	
7674	0	36552	
7675	0	36264	
7676	0	36000	
7677	0	35810	
7678	0	35652	
7679	0	35432	
7680	0	35208	
7681	0	35020	
7682	0	34863	
7683	0	34709	
7684	0	34526	
7685	0	34378	
7686	0	34180	
7687	0	34016	
7688	0	33840	
7689	0	33656	
7690	0	33429	
7691	0	33202	
7692	0	32967	
7693	0	32724	
7694	0	32544	
7695	0	32348	
7696	0	32176	
7697	0	31990	
7698	0	31780	
7699	0	31658	
7700	0	31482	
7701	0	31336	
7702	0	31093	
7703	0	30946	
7704	0	30814	
7705	0	30638	
7706	0	30500	
7707	0	30352	
7708	0	30168	
7709	0	30013	
7710	0	29786	
7711	0	29561	
7712	0	29396	
7713	0	29154	
7714	0	28991	
7715	0	28768	
7716	0	28577	
7717	0	28380	
7718	0	28242	
7719	0	28077	
7720	0	27936	
7721	0	27765	
7722	0	27589	
7723	0	27521	
7724	0	27401	
7725	0	27257	
7726	0	27149	
7727	0	27020	
7728	0	26866	
7729	0	26700	
7730	0	26528	
7731	0	26365	
7732	0	26176	
7733	0	25972	
7734	0	25758	
7735	0	25632	
7736	0	25508	
7737	0	25387	
7738	0	25288	
7739	0	25174	
7740	0	25044	
7741	0	24980	
7742	0	24876	
7743	0	24812	
7744	0	24725	
7745	0	24644	
7746	0	24576	
7747	0	24516	
7748	0	24448	
7749	0	24344	
7750	0	24256	
7751	0	24160	
7752	0	24026	
7753	0	23907	
7754	0	23825	
7755	0	23792	
7756	0	23710	
7757	0	23640	
7758	0	23668	
7759	0	23652	
7760	0	23544	
7761	0	23574	
7762	0	23495	
7763	0	23554	
7764	0	23600	
7765	0	23636	
7766	0	23666	
7767	0	23728	
7768	0	23730	
7769	0	23679	
7770	0	23670	
7771	0	23684	
7772	0	23668	
7773	0	23630	
7774	0	23594	
7775	0	23656	
7776	0	23697	
7777	0	23732	
7778	0	23738	
7779	0	23792	
7780	0	23841	
7781	0	23912	
7782	0	23968	
7783	0	24097	
7784	0	24185	
7785	0	24248	
7786	0	24418	
7787	0	24524	
7788	0	24596	
7789	0	24603	
7790	0	24692	
7791	0	24748	
7792	0	24793	
7793	0	24852	
7794	0	24872	
7795	0	24941	
7796	0	25018	
7797	0	25099	
7798	0	25156	
7799	0	25325	
7800	0	25486	
7801	0	25521	
7802	0	25638	
7803	0	25780	
7804	0	25934	
7805	0	26036	
7806	0	26182	
7807	0	26368	
7808	0	26400	
7809	0	26476	
7810	0	26568	
7811	0	26680	
7812	0	26726	
7813	0	26819	
7814	0	26840	
7815	0	26997	
7816	0	27096	
7817	0	27205	
7818	0	27316	
7819	0	27428	
7820	0	27458	
7821	0	27578	
7822	0	27708	
7823	0	27856	
7824	0	27984	
7825	0	28048	
7826	0	28160	
7827	0	28312	
7828	0	28420	
7829	0	28472	
7830	0	28567	
7831	0	28625	
7832	0	28697	
7833	0	28732	
7834	0	28769	
7835	0	28912	
7836	0	28904	
7837	0	28980	
7838	0	29040	
7839	0	29165	
7840	0	29248	
7841	0	29316	
7842	0	29392	
7843	0	29450	
7844	0	29581	
7845	0	29608	
7846	0	29748	
7847	0	29837	
7848	0	29883	
7849	0	29887	
7850	0	29916	
7851	0	29976	
7852	0	29944	
7853	0	29985	
7854	0	29920	
7855	0	30020	
7856	0	30034	
7857	0	30039	
7858	0	30112	
7859	0	30120	
7860	0	30166	
7861	0	30157	
7862	0	30234	
7863	0	30240	
7864	0	30341	
7865	0	30348	
7866	0	30389	
7867	0	30492	
7868	0	30488	
7869	0	30496	
7870	0	30472	
7871	0	30424	
7872	0	30410	
7873	0	30328	
7874	0	30260	
7875	0	30281	
7876	0	30232	
7877	0	30278	
7878	0	30261	
7879	0	30240	
7880	0	30220	
7881	0	30272	
7882	0	30280	
7883	0	30272	
7884	0	30318	
7885	0	30244	
7886	0	30263	
7887	0	30240	
7888	0	30245	
7889	0	30240	
7890	0	30192	
7891	0	30086	
7892	0	29984	
7893	0	29974	
7894	0	29847	
7895	0	29760	
7896	0	29738	
7897	0	29724	
7898	0	29684	
7899	0	29676	
7900	0	29606	
7901	0	29624	
7902	0	29600	
7903	0	29552	
7904	0	29540	
7905	0	29488	
7906	0	29496	
7907	0	29466	
7908	0	29388	
7909	0	29362	
7910	0	29269	
7911	0	29196	
7912	0	29136	
7913	0	28974	
7914	0	28892	
7915	0	28879	
7916	0	28746	
7917	0	28672	
7918	0	28652	
7919	0	28560	
7920	0	28447	
7921	0	28385	
7922	0	28348	
7923	0	28322	
7924	0	28302	
7925	0	28212	
7926	0	28180	
7927	0	28200	
7928	0	28098	
7929	0	28025	
7930	0	27936	
7931	0	27816	
7932	0	27716	
7933	0	27518	
7934	0	27448	
7935	0	27424	
7936	0	27288	
7937	0	27210	
7938	0	27128	
7939	0	27081	
7940	0	27012	
7941	0	26936	
7942	0	26856	
7943	0	26813	
7944	0	26732	
7945	0	26634	
7946	0	26606	
7947	0	26575	
7948	0	26476	
7949	0	26396	
7950	0	26317	
7951	0	26252	
7952	0	26116	
7953	0	26004	
7954	0	25890	
7955	0	25872	
7956	0	25748	
7957	0	25633	
7958	0	25618	
7959	0	25516	
7960	0	25440	
7961	0	25406	
7962	0	25285	
7963	0	25274	
7964	0	25193	
7965	0	25112	
7966	0	25047	
7967	0	25024	
7968	0	24951	
7969	0	24866	
7970	0	24786	
7971	0	24684	
7972	0	24622	
7973	0	24448	
7974	0	24326	
7975	0	24276	
7976	0	24124	
7977	0	24047	
7978	0	24032	
7979	0	23934	
7980	0	23842	
7981	0	23808	
7982	0	23712	
7983	0	23670	
7984	0	23685	
7985	0	23600	
7986	0	23572	
7987	0	23497	
7988	0	23390	
7989	0	23369	
7990	0	23256	
7991	0	23086	
7992	0	23040	
7993	0	22953	
7994	0	22820	
7995	0	22777	
7996	0	22670	
7997	0	22586	
7998	0	22512	
7999	0	22461	
8000	0	22430	
8001	0	22308	
8002	0	22266	
8003	0	22220	
8004	0	22154	
8005	0	22074	
8006	0	22060	
8007	0	22032	
8008	0	21954	
8009	0	21890	
8010	0	21805	
8011	0	21700	
8012	0	21623	
8013	0	21464	
8014	0	21352	
8015	0	21288	
8016	0	21220	
8017	0	21166	
8018	0	21141	
8019	0	21032	
8020	0	20984	
8021	0	20906	
8022	0	20902	
8023	0	20885	
8024	0	20856	
8025	0	20820	
8026	0	20790	
8027	0	20716	
8028	0	20730	
8029	0	20658	
8030	0	20620	
8031	0	20516	
8032	0	20449	
8033	0	20368	
8034	0	20206	
8035	0	20156	
8036	0	20094	
8037	0	20044	
8038	0	19950	
8039	0	19924	
8040	0	19930	
8041	0	19834	
8042	0	19792	
8043	0	19761	
8044	0	19748	
8045	0	19688	
8046	0	19660	
8047	0	19666	
8048	0	19668	
8049	0	19571	
8050	0	19532	
8051	0	19401	
8052	0	19392	
8053	0	19232	
8054	0	19152	
8055	0	19108	
8056	0	19006	
8057	0	18977	
8058	0	18936	
8059	0	18889	
8060	0	18833	
8061	0	18776	
8062	0	18764	
8063	0	18753	
8064	0	18726	
8065	0	18717	
8066	0	18749	
8067	0	18762	
8068	0	18688	
8069	0	18577	
8070	0	18492	
8071	0	18440	
8072	0	18364	
8073	0	18314	
8074	0	18176	
8075	0	18152	
8076	0	18089	
8077	0	18018	
8078	0	17972	
8079	0	17913	
8080	0	17874	
8081	0	17838	
8082	0	17776	
8083	0	17778	
8084	0	17761	
8085	0	17689	
8086	0	17666	
8087	0	17740	
8088	0	17709	
8089	0	17573	
8090	0	17512	
8091	0	17466	
8092	0	17388	
8093	0	17241	
8094	0	17190	
8095	0	17137	
8096	0	17077	
8097	0	17037	
8098	0	17061	
8099	0	16933	
8100	0	16936	
8101	0	16902	
8102	0	16868	
8103	0	16804	
8104	0	16800	
8105	0	16821	
8106	0	16868	
8107	0	16876	
8108	0	16832	
8109	0	16822	
8110	0	16756	
8111	0	16708	
8112	0	16652	
8113	0	16588	
8114	0	16491	
8115	0	16480	
8116	0	16472	
8117	0	16430	
8118	0	16464	
8119	0	16469	
8120	0	16486	
8121	0	16596	
8122	0	16655	
8123	0	16744	
8124	0	16878	
8125	0	16976	
8126	0	17173	
8127	0	17336	
8128	0	17472	
8129	0	17638	
8130	0	17824	
8131	0	18064	
8132	0	18256	
8133	0	18560	
8134	0	18736	
8135	0	19120	
8136	0	19454	
8137	0	19840	
8138	0	20194	
8139	0	20700	
8140	0	21178	
8141	0	21692	
8142	0	22140	
8143	0	22696	
8144	0	23260	
8145	0	23827	
8146	0	24444	
8147	0	25124	
8148	0	25693	
8149	0	26282	
8150	0	26844	
8151	0	27513	
8152	0	28024	
8153	0	28604	
8154	0	29228	
8155	0	29828	
8156	0	30440	
8157	0	31125	
8158	0	31784	
8159	0	32432	
8160	0	33088	
8161	0	33753	
8162	0	34344	
8163	0	35084	
8164	0	35738	
8165	0	36380	
8166	0	37062	
8167	0	37656	
8168	0	38270	
8169	0	38912	
8170	0	39480	
8171	0	39992	
8172	0	40560	
8173	0	41092	
8174	0	41605	
8175	0	42180	
8176	0	42688	
8177	0	43316	
8178	0	43808	
8179	0	44308	
8180	0	44828	
8181	0	45358	
8182	0	45864	
8183	0	46357	
8184	0	46940	
8185	0	47376	
8186	0	47892	
8187	0	48353	
8188	0	48812	
8189	0	49264	
8190	0	49568	
8191	0	49952	
8192	0	50248	
8193	0	50614	
8194	0	50890	
8195	0	51272	
8196	0	51572	
8197	0	51823	
8198	0	52184	
8199	0	52464	
8200	0	52664	
8201	0	52948	
8202	0	53228	
8203	0	53516	
8204	0	53820	
8205	0	54020	
8206	0	54312	
8207	0	54552	
8208	0	54688	
8209	0	54872	
8210	0	55004	
8211	0	55104	
8212	0	55268	
8213	0	55372	
8214	0	55428	
8215	0	55536	
8216	0	55600	
8217	0	55639	
8218	0	55781	
8219	0	55860	
8220	0	55910	
8221	0	55992	
8222	0	56036	
8223	0	56120	
8224	0	56192	
8225	0	56162	
8226	0	56236	
8227	0	56288	
8228	0	56300	
8229	0	56224	
8230	0	56181	
8231	0	56112	
8232	0	56088	
8233	0	55960	
8234	0	55888	
8235	0	55808	
8236	0	55692	
8237	0	55569	
8238	0	55489	
8239	0	55468	
8240	0	55336	
8241	0	55264	
8242	0	55132	
8243	0	55024	
8244	0	54953	
8245	0	54824	
8246	0	54708	
8247	0	54656	
8248	0	54460	
8249	0	54269	
8250	0	54178	
8251	0	53920	
8252	0	53704	
8253	0	53480	
8254	0	53268	
8255	0	53044	
8256	0	52913	
8257	0	52673	
8258	0	52490	
8259	0	52224	
8260	0	52048	
8261	0	51840	
8262	0	51644	
8263	0	51446	
8264	0	51276	
8265	0	51020	
8266	0	50878	
8267	0	50688	
8268	0	50446	
8269	0	50178	
8270	0	49924	
8271	0	49716	
8272	0	49500	
8273	0	49159	
8274	0	48928	
8275	0	48698	
8276	0	48420	
8277	0	48152	
8278	0	47887	
8279	0	47660	
8280	0	47404	
8281	0	47184	
8282	0	46964	
8283	0	46721	
8284	0	46528	
8285	0	46276	
8286	0	46113	
8287	0	45952	
8288	0	45633	
8289	0	45436	
8290	0	45272	
8291	0	44972	
8292	0	44692	
8293	0	44436	
8294	0	44154	
8295	0	43888	
8296	0	43663	
8297	0	43391	
8298	0	43216	
8299	0	42937	
8300	0	42786	
8301	0	42578	
8302	0	42341	
8303	0	42129	
8304	0	41920	
8305	0	41740	
8306	0	41588	
8307	0	41424	
8308	0	41216	
8309	0	41056	
8310	0	40780	
8311	0	40559	
8312	0	40320	
8313	0	39989	
8314	0	39796	
8315	0	39569	
8316	0	39336	
8317	0	39148	
8318	0	38928	
8319	0	38760	
8320	0	38568	
8321	0	38390	
8322	0	38247	
8323	0	38056	
8324	0	37920	
8325	0	37760	
8326	0	37588	
8327	0	37445	
8328	0	37300	
8329	0	37040	
8330	0	36872	
8331	0	36632	
8332	0	36455	
8333	0	36245	
8334	0	35983	
8335	0	35835	
8336	0	35696	
8337	0	35424	
8338	0	35260	
8339	0	35048	
8340	0	34888	
8341	0	34780	
8342	0	34620	
8343	0	34412	
8344	0	34312	
8345	0	34124	
8346	0	33984	
8347	0	33884	
8348	0	33744	
8349	0	33552	
8350	0	33324	
8351	0	33121	
8352	0	32930	
8353	0	32712	
8354	0	32484	
8355	0	32318	
8356	0	32170	
8357	0	31972	
8358	0	31757	
8359	0	31564	
8360	0	31402	
8361	0	31240	
8362	0	31096	
8363	0	31032	
8364	0	30892	
8365	0	30696	
8366	0	30564	
8367	0	30470	
8368	0	30320	
8369	0	30152	
8370	0	30018	
8371	0	29805	
8372	0	29576	
8373	0	29388	
8374	0	29212	
8375	0	29076	
8376	0	28913	
8377	0	28764	
8378	0	28623	
8379	0	28517	
8380	0	28418	
8381	0	28309	
8382	0	28208	
8383	0	28140	
8384	0	28064	
8385	0	27938	
8386	0	27872	
8387	0	27858	
8388	0	27788	
8389	0	27666	
8390	0	27495	
8391	0	27386	
8392	0	27298	
8393	0	27168	
8394	0	27071	
8395	0	27004	
8396	0	26952	
8397	0	26882	
8398	0	26836	
8399	0	26810	
8400	0	26732	
8401	0	26725	
8402	0	26686	
8403	0	26676	
8404	0	26669	
8405	0	26650	
8406	0	26677	
8407	0	26760	
8408	0	26749	
8409	0	26709	
8410	0	26716	
8411	0	26704	
8412	0	26671	
8413	0	26632	
8414	0	26674	
8415	0	26688	
8416	0	26736	
8417	0	26688	
8418	0	26681	
8419	0	26740	
8420	0	26760	
8421	0	26841	
8422	0	26893	
8423	0	26968	
8424	0	27077	
8425	0	27110	
8426	0	27177	
8427	0	27316	
8428	0	27372	
8429	0	27418	
8430	0	27501	
8431	0	27520	
8432	0	27616	
8433	0	27684	
8434	0	27684	
8435	0	27740	
8436	0	27792	
8437	0	27808	
8438	0	27896	
8439	0	28026	
8440	0	28120	
8441	0	28193	
8442	0	28312	
8443	0	28401	
8444	0	28513	
8445	0	28609	
8446	0	28800	
8447	0	28937	
8448	0	29017	
8449	0	29100	
8450	0	29212	
8451	0	29285	
8452	0	29390	
8453	0	29381	
8454	0	29378	
8455	0	29546	
8456	0	29640	
8457	0	29682	
8458	0	29761	
8459	0	29820	
8460	0	29908	
8461	0	30030	
8462	0	30177	
8463	0	30244	
8464	0	30400	
8465	0	30582	
8466	0	30688	
8467	0	30832	
8468	0	30920	
8469	0	30997	
8470	0	31045	
8471	0	31108	
8472	0	31160	
8473	0	31174	
8474	0	31210	
8475	0	31324	
8476	0	31361	
8477	0	31385	
8478	0	31452	
8479	0	31474	
8480	0	31552	
8481	0	31628	
8482	0	31724	
8483	0	31841	
8484	0	31922	
8485	0	31900	
8486	0	32036	
8487	0	32109	
8488	0	32196	
8489	0	32214	
8490	0	32241	
8491	0	32242	
8492	0	32234	
8493	0	32192	
8494	0	32213	
8495	0	32256	
8496	0	32220	
8497	0	32248	
8498	0	32260	
8499	0	32244	
8500	0	32268	
8501	0	32336	
8502	0	32388	
8503	0	32476	
8504	0	32460	
8505	0	32412	
8506	0	32484	
8507	0	32570	
8508	0	32496	
8509	0	32512	
8510	0	32508	
8511	0	32452	
8512	0	32412	
8513	0	32404	
8514	0	32302	
8515	0	32264	
8516	0	32224	
8517	0	32160	
8518	0	32198	
8519	0	32174	
8520	0	32160	
8521	0	32146	
8522	0	32138	
8523	0	32096	
8524	0	32076	
8525	0	32072	
8526	0	32060	
8527	0	32072	
8528	0	32061	
8529	0	32000	
8530	0	31960	
8531	0	31852	
8532	0	31758	
8533	0	31701	
8534	0	31616	
8535	0	31532	
8536	0	31548	
8537	0	31436	
8538	0	31372	
8539	0	31354	
8540	0	31326	
8541	0	31246	
8542	0	31200	
8543	0	31132	
8544	0	31152	
8545	0	31117	
8546	0	31072	
8547	0	31004	
8548	0	30974	
8549	0	30861	
8550	0	30828	
8551	0	30728	
8552	0	30660	
8553	0	30515	
8554	0	30357	
8555	0	30324	
8556	0	30312	
8557	0	30200	
8558	0	30130	
8559	0	30065	
8560	0	29984	
8561	0	29916	
8562	0	29800	
8563	0	29773	
8564	0	29758	
8565	0	29748	
8566	0	29660	
8567	0	29630	
8568	0	29570	
8569	0	29464	
8570	0	29344	
8571	0	29250	
8572	0	29193	
8573	0	29098	
8574	0	28906	
8575	0	28782	
8576	0	28704	
8577	0	28605	
8578	0	28529	
8579	0	28488	
8580	0	28416	
8581	0	28304	
8582	0	28264	
8583	0	28172	
8584	0	28177	
8585	0	28092	
8586	0	28016	
8587	0	28000	
8588	0	27960	
8589	0	27896	
8590	0	27748	
8591	0	27677	
8592	0	27578	
8593	0	27468	
